# Pulseq sequence file
# Created by MATLAB mr toolbox

[VERSION]
major 1
minor 1
revision 0

# Format of blocks:
#  #  D RF  GX  GY  GZ ADC
[BLOCKS]
  1  0  1   0   0   1  0
  2  0  0   0   0   2  0
  3  1  0   0   0   0  0
  4  0  0   3   4   0  1
  5  2  0   0   0   0  0
  6  0  2   0   0   5  0
  7  0  0   0   0   2  0
  8  3  0   0   0   0  0
  9  0  0   6   7   0  1
 10  4  0   0   0   0  0
 11  0  3   0   0   8  0
 12  0  0   0   0   2  0
 13  5  0   0   0   0  0
 14  0  0   9  10   0  1
 15  4  0   0   0   0  0
 16  0  4   0   0  11  0
 17  0  0   0   0   2  0
 18  6  0   0   0   0  0
 19  0  0  12  13   0  1
 20  7  0   0   0   0  0
 21  0  5   0   0  14  0
 22  0  0   0   0   2  0
 23  8  0   0   0   0  0
 24  0  0  15   3   0  1
 25  4  0   0   0   0  0
 26  0  6   0   0  16  0
 27  0  0   0   0   2  0
 28  9  0   0   0   0  0
 29  0  0  17   6   0  1
 30  4  0   0   0   0  0
 31  0  7   0   0  18  0
 32  0  0   0   0   2  0
 33 10  0   0   0   0  0
 34  0  0  19   9   0  1
 35  4  0   0   0   0  0
 36  0  8   0   0  20  0
 37  0  0   0   0   2  0
 38 11  0   0   0   0  0
 39  0  0  21  12   0  1
 40  4  0   0   0   0  0
 41  0  9   0   0  22  0
 42  0  0   0   0   2  0
 43 12  0   0   0   0  0
 44  0  0  23  15   0  1
 45  4  0   0   0   0  0
 46  0 10   0   0  24  0
 47  0  0   0   0   2  0
 48 13  0   0   0   0  0
 49  0  0  25  17   0  1
 50  4  0   0   0   0  0
 51  0 11   0   0  26  0
 52  0  0   0   0   2  0
 53 14  0   0   0   0  0
 54  0  0  27  19   0  1
 55  4  0   0   0   0  0
 56  0 12   0   0  28  0
 57  0  0   0   0   2  0
 58 15  0   0   0   0  0
 59  0  0  29  21   0  1
 60  4  0   0   0   0  0
 61  0 13   0   0  30  0
 62  0  0   0   0   2  0
 63 16  0   0   0   0  0
 64  0  0   4  23   0  1
 65  4  0   0   0   0  0
 66  0 14   0   0  31  0
 67  0  0   0   0   2  0
 68 17  0   0   0   0  0
 69  0  0   7  25   0  1
 70  7  0   0   0   0  0
 71  0 15   0   0  32  0
 72  0  0   0   0   2  0
 73 18  0   0   0   0  0
 74  0  0  10  27   0  1
 75  4  0   0   0   0  0
 76  0 16   0   0  33  0
 77  0  0   0   0   2  0
 78 19  0   0   0   0  0
 79  0  0  13  29   0  1
 80  4  0   0   0   0  0
 81  0  1   0   0   1  0
 82  0  0   0   0   2  0
 83  1  0   0   0   0  0
 84  0  0   3   4   0  1
 85  4  0   0   0   0  0
 86  0  2   0   0   5  0
 87  0  0   0   0   2  0
 88  3  0   0   0   0  0
 89  0  0   6   7   0  1
 90  4  0   0   0   0  0
 91  0  3   0   0   8  0
 92  0  0   0   0   2  0
 93  5  0   0   0   0  0
 94  0  0   9  10   0  1
 95  4  0   0   0   0  0
 96  0  4   0   0  11  0
 97  0  0   0   0   2  0
 98  6  0   0   0   0  0
 99  0  0  12  13   0  1
100  4  0   0   0   0  0
101  0  5   0   0  14  0
102  0  0   0   0   2  0
103  8  0   0   0   0  0
104  0  0  15   3   0  1
105  4  0   0   0   0  0
106  0  6   0   0  16  0
107  0  0   0   0   2  0
108  9  0   0   0   0  0
109  0  0  17   6   0  1
110  4  0   0   0   0  0
111  0  7   0   0  18  0
112  0  0   0   0   2  0
113 10  0   0   0   0  0
114  0  0  19   9   0  1
115  4  0   0   0   0  0
116  0  8   0   0  20  0
117  0  0   0   0   2  0
118 11  0   0   0   0  0
119  0  0  21  12   0  1
120  4  0   0   0   0  0
121  0  9   0   0  22  0
122  0  0   0   0   2  0
123 12  0   0   0   0  0
124  0  0  23  15   0  1
125  4  0   0   0   0  0
126  0 10   0   0  24  0
127  0  0   0   0   2  0
128 13  0   0   0   0  0
129  0  0  25  17   0  1
130  4  0   0   0   0  0
131  0 11   0   0  26  0
132  0  0   0   0   2  0
133 14  0   0   0   0  0
134  0  0  27  19   0  1
135  4  0   0   0   0  0
136  0 12   0   0  28  0
137  0  0   0   0   2  0
138 15  0   0   0   0  0
139  0  0  29  21   0  1
140  4  0   0   0   0  0
141  0 13   0   0  30  0
142  0  0   0   0   2  0
143 16  0   0   0   0  0
144  0  0   4  23   0  1
145  4  0   0   0   0  0
146  0 14   0   0  31  0
147  0  0   0   0   2  0
148 17  0   0   0   0  0
149  0  0   7  25   0  1
150  4  0   0   0   0  0
151  0 15   0   0  32  0
152  0  0   0   0   2  0
153 18  0   0   0   0  0
154  0  0  10  27   0  1
155  4  0   0   0   0  0
156  0 16   0   0  33  0
157  0  0   0   0   2  0
158 19  0   0   0   0  0
159  0  0  13  29   0  1
160  4  0   0   0   0  0
161  0  1   0   0   1  0
162  0  0   0   0   2  0
163  1  0   0   0   0  0
164  0  0   3   4   0  1
165  4  0   0   0   0  0
166  0  2   0   0   5  0
167  0  0   0   0   2  0
168  3  0   0   0   0  0
169  0  0   6   7   0  1
170  4  0   0   0   0  0
171  0  3   0   0   8  0
172  0  0   0   0   2  0
173  5  0   0   0   0  0
174  0  0   9  10   0  1
175  7  0   0   0   0  0
176  0  4   0   0  11  0
177  0  0   0   0   2  0
178  6  0   0   0   0  0
179  0  0  12  13   0  1
180  4  0   0   0   0  0
181  0  5   0   0  14  0
182  0  0   0   0   2  0
183  8  0   0   0   0  0
184  0  0  15   3   0  1
185  4  0   0   0   0  0
186  0  6   0   0  16  0
187  0  0   0   0   2  0
188  9  0   0   0   0  0
189  0  0  17   6   0  1
190  4  0   0   0   0  0
191  0  7   0   0  18  0
192  0  0   0   0   2  0
193 10  0   0   0   0  0
194  0  0  19   9   0  1
195  4  0   0   0   0  0
196  0  8   0   0  20  0
197  0  0   0   0   2  0
198 11  0   0   0   0  0
199  0  0  21  12   0  1
200  4  0   0   0   0  0
201  0  9   0   0  22  0
202  0  0   0   0   2  0
203 12  0   0   0   0  0
204  0  0  23  15   0  1
205  4  0   0   0   0  0
206  0 10   0   0  24  0
207  0  0   0   0   2  0
208 13  0   0   0   0  0
209  0  0  25  17   0  1
210  4  0   0   0   0  0
211  0 11   0   0  26  0
212  0  0   0   0   2  0
213 14  0   0   0   0  0
214  0  0  27  19   0  1
215  4  0   0   0   0  0
216  0 12   0   0  28  0
217  0  0   0   0   2  0
218 15  0   0   0   0  0
219  0  0  29  21   0  1
220  4  0   0   0   0  0
221  0 13   0   0  30  0
222  0  0   0   0   2  0
223 16  0   0   0   0  0
224  0  0   4  23   0  1
225  4  0   0   0   0  0
226  0 14   0   0  31  0
227  0  0   0   0   2  0
228 17  0   0   0   0  0
229  0  0   7  25   0  1
230  7  0   0   0   0  0
231  0 15   0   0  32  0
232  0  0   0   0   2  0
233 18  0   0   0   0  0
234  0  0  10  27   0  1
235  7  0   0   0   0  0
236  0 16   0   0  33  0
237  0  0   0   0   2  0
238 19  0   0   0   0  0
239  0  0  13  29   0  1
240  4  0   0   0   0  0
241  0  1   0   0   1  0
242  0  0   0   0   2  0
243  1  0   0   0   0  0
244  0  0   3   4   0  1
245  4  0   0   0   0  0
246  0  2   0   0   5  0
247  0  0   0   0   2  0
248  3  0   0   0   0  0
249  0  0   6   7   0  1
250  4  0   0   0   0  0
251  0  3   0   0   8  0
252  0  0   0   0   2  0
253  5  0   0   0   0  0
254  0  0   9  10   0  1
255  4  0   0   0   0  0
256  0  4   0   0  11  0
257  0  0   0   0   2  0
258  6  0   0   0   0  0
259  0  0  12  13   0  1
260  4  0   0   0   0  0
261  0  5   0   0  14  0
262  0  0   0   0   2  0
263  8  0   0   0   0  0
264  0  0  15   3   0  1
265  4  0   0   0   0  0
266  0  6   0   0  16  0
267  0  0   0   0   2  0
268  9  0   0   0   0  0
269  0  0  17   6   0  1
270  4  0   0   0   0  0
271  0  7   0   0  18  0
272  0  0   0   0   2  0
273 10  0   0   0   0  0
274  0  0  19   9   0  1
275  4  0   0   0   0  0
276  0  8   0   0  20  0
277  0  0   0   0   2  0
278 11  0   0   0   0  0
279  0  0  21  12   0  1
280  4  0   0   0   0  0
281  0  9   0   0  22  0
282  0  0   0   0   2  0
283 12  0   0   0   0  0
284  0  0  23  15   0  1
285  7  0   0   0   0  0
286  0 10   0   0  24  0
287  0  0   0   0   2  0
288 13  0   0   0   0  0
289  0  0  25  17   0  1
290  4  0   0   0   0  0
291  0 11   0   0  26  0
292  0  0   0   0   2  0
293 14  0   0   0   0  0
294  0  0  27  19   0  1
295  4  0   0   0   0  0
296  0 12   0   0  28  0
297  0  0   0   0   2  0
298 15  0   0   0   0  0
299  0  0  29  21   0  1
300  7  0   0   0   0  0
301  0 13   0   0  30  0
302  0  0   0   0   2  0
303 16  0   0   0   0  0
304  0  0   4  23   0  1
305  4  0   0   0   0  0
306  0 14   0   0  31  0
307  0  0   0   0   2  0
308 17  0   0   0   0  0
309  0  0   7  25   0  1
310  4  0   0   0   0  0
311  0 15   0   0  32  0
312  0  0   0   0   2  0
313 18  0   0   0   0  0
314  0  0  10  27   0  1
315  4  0   0   0   0  0
316  0 16   0   0  33  0
317  0  0   0   0   2  0
318 19  0   0   0   0  0
319  0  0  13  29   0  1
320  4  0   0   0   0  0
321  0  1   0   0   1  0
322  0  0   0   0   2  0
323  1  0   0   0   0  0
324  0  0   3   4   0  1
325  4  0   0   0   0  0
326  0  2   0   0   5  0
327  0  0   0   0   2  0
328  3  0   0   0   0  0
329  0  0   6   7   0  1
330  4  0   0   0   0  0
331  0  3   0   0   8  0
332  0  0   0   0   2  0
333  5  0   0   0   0  0
334  0  0   9  10   0  1
335  7  0   0   0   0  0
336  0  4   0   0  11  0
337  0  0   0   0   2  0
338  6  0   0   0   0  0
339  0  0  12  13   0  1
340  4  0   0   0   0  0
341  0  5   0   0  14  0
342  0  0   0   0   2  0
343  8  0   0   0   0  0
344  0  0  15   3   0  1
345  4  0   0   0   0  0
346  0  6   0   0  16  0
347  0  0   0   0   2  0
348  9  0   0   0   0  0
349  0  0  17   6   0  1
350  7  0   0   0   0  0
351  0  7   0   0  18  0
352  0  0   0   0   2  0
353 10  0   0   0   0  0
354  0  0  19   9   0  1
355  7  0   0   0   0  0
356  0  8   0   0  20  0
357  0  0   0   0   2  0
358 11  0   0   0   0  0
359  0  0  21  12   0  1
360  4  0   0   0   0  0
361  0  9   0   0  22  0
362  0  0   0   0   2  0
363 12  0   0   0   0  0
364  0  0  23  15   0  1
365  4  0   0   0   0  0
366  0 10   0   0  24  0
367  0  0   0   0   2  0
368 13  0   0   0   0  0
369  0  0  25  17   0  1
370  4  0   0   0   0  0
371  0 11   0   0  26  0
372  0  0   0   0   2  0
373 14  0   0   0   0  0
374  0  0  27  19   0  1
375  7  0   0   0   0  0
376  0 12   0   0  28  0
377  0  0   0   0   2  0
378 15  0   0   0   0  0
379  0  0  29  21   0  1
380  7  0   0   0   0  0
381  0 13   0   0  30  0
382  0  0   0   0   2  0
383 16  0   0   0   0  0
384  0  0   4  23   0  1
385  4  0   0   0   0  0
386  0 14   0   0  31  0
387  0  0   0   0   2  0
388 17  0   0   0   0  0
389  0  0   7  25   0  1
390  4  0   0   0   0  0
391  0 15   0   0  32  0
392  0  0   0   0   2  0
393 18  0   0   0   0  0
394  0  0  10  27   0  1
[RF]
1      81.9643 1 2 0 0
2      251.199 5 6 0 0
3      396.484 9 10 0 0
4       515.06 13 14 0 0
5      605.148 17 18 0 0
6      665.946 20 21 0 0
7      697.595 23 24 0 0
8      701.134 26 27 0 0
9      678.413 29 30 0 0
10      632.005 32 33 0 0
11      565.087 35 36 0 0
12      481.314 38 39 0 0
13      384.682 41 42 0 0
14      279.385 43 44 0 0
15      169.676 45 46 0 0
16      59.7229 47 48 0 0

# Format of arbitrary gradients:
# id amplitude shape_id
# ..      Hz/m     ....
[GRADIENTS]
3       882149 3 
4       908975 4 
6       874480 7 
7       905439 8 
9       866710 11 
10       897624 12 
12       859027 15 
13       889872 16 
15       908975 19 
17       905439 22 
19       897624 25 
21       889872 28 
23       882149 31 
25       874480 34 
27       866710 37 
29       859027 40 

# Format of trapezoid gradients:
# id amplitude rise flat fall
# ..      Hz/m   us   us   us
[TRAP]
 1       761905 140 1050 140
 2      -461538  90  820  90
 5       727273 140 1100 140
 8       695652 130 1150 130
11       666667 130 1200 130
14       640000 120 1250 120
16       615385 120 1300 120
18       592593 110 1350 110
20       571429 110 1400 110
22       551724 100 1450 100
24       533333 100 1500 100
26       516129 100 1550 100
28       500000 100 1600 100
30       484848  90 1650  90
31       470588  90 1700  90
32       457143  90 1750  90
33       444444  90 1800  90

# Format of ADC events:
# id num dwell delay freq phase
# ..  ..    ns    us   Hz   rad
[ADC]
 1 756  10000   0 0 0

# Format of delays:
# id delay (us)
[DELAYS]
1 3400
2 2687450
3 3370
4 7450
5 3350
6 3330
7 8450
8 3310
9 3280
10 3260
11 3240
12 3220
13 3190
14 3170
15 3140
16 3120
17 3100
18 3070
19 3050
20 9460

# Sequence Shapes
[SHAPES]

shape_id 1
num_samples 1200
0
0
138
1.70836e-08
1.19835e-07
3.26005e-07
6.36276e-07
1.05128e-06
1.57161e-06
2.1978e-06
2.93032e-06
3.76963e-06
4.71609e-06
5.77004e-06
6.93176e-06
8.20147e-06
9.57936e-06
1.10655e-05
1.26601e-05
1.4363e-05
1.61742e-05
1.80937e-05
2.01213e-05
2.22567e-05
2.44998e-05
2.68502e-05
2.93075e-05
3.18713e-05
3.45412e-05
3.73165e-05
4.01967e-05
4.31812e-05
4.62692e-05
4.946e-05
5.27527e-05
5.61465e-05
5.96404e-05
6.32334e-05
6.69245e-05
7.07126e-05
7.45966e-05
7.85751e-05
8.26469e-05
8.68108e-05
9.10652e-05
9.54088e-05
9.98401e-05
0.000104357
0.000108959
0.000113644
0.00011841
0.000123255
0.000128177
0.000133175
0.000138247
0.00014339
0.000148604
0.000153884
0.00015923
0.000164639
0.000170109
0.000175637
0.000181222
0.00018686
0.00019255
0.000198288
0.000204073
0.000209902
0.000215771
0.000221679
0.000227622
0.000233598
0.000239603
0.000245636
0.000251693
0.000257771
0.000263867
0.000269977
0.0002761
0.000282232
0.000288369
0.000294508
0.000300646
0.000306781
0.000312907
0.000319023
0.000325124
0.000331207
0.00033727
0.000343307
0.000349316
0.000355293
0.000361235
0.000367138
0.000372998
0.000378811
0.000384574
0.000390284
0.000395935
0.000401526
0.000407051
0.000412507
0.00041789
0.000423196
0.000428422
0.000433563
0.000438616
0.000443576
0.00044844
0.000453204
0.000457864
0.000462416
0.000466855
0.000471179
0.000475382
0.000479462
0.000483413
0.000487232
0.000490915
0.000494458
0.000497858
0.000501109
0.000504208
0.000507151
0.000509934
0.000512553
0.000515004
0.000517283
0.000519387
0.00052131
0.00052305
0.000524603
0.000525964
0.00052713
0.000528097
0.00052886
0.000529417
0.000529764
0.000529896
0.00052981
0.000529502
0.000528969
0.000528207
0.000527212
0.000525981
0.000524511
0.000522796
0.000520835
0.000518624
0.000516159
0.000513437
0.000510455
0.000507209
0.000503696
0.000499913
0.000495856
0.000491524
0.000486912
0.000482017
0.000476837
0.000471369
0.000465609
0.000459556
0.000453205
0.000446555
0.000439604
0.000432347
0.000424783
0.00041691
0.000408725
0.000400225
0.000391408
0.000382273
0.000372816
0.000363037
0.000352932
0.0003425
0.000331739
0.000320648
0.000309224
0.000297465
0.000285371
0.00027294
0.00026017
0.00024706
0.000233608
0.000219814
0.000205677
0.000191194
0.000176366
0.000161191
0.000145668
0.000129798
0.000113578
9.70091e-05
8.00902e-05
6.28211e-05
4.52014e-05
2.72308e-05
8.9092e-06
-9.7634e-06
-2.8787e-05
-4.81615e-05
-6.78866e-05
-8.79622e-05
-0.000108388
-0.000129163
-0.000150287
-0.000171759
-0.000193579
-0.000215745
-0.000238257
-0.000261114
-0.000284314
-0.000307857
-0.000331741
-0.000355965
-0.000380527
-0.000405425
-0.000430659
-0.000456225
-0.000482123
-0.00050835
-0.000534905
-0.000561785
-0.000588987
-0.00061651
-0.000644352
-0.000672509
-0.000700979
-0.000729759
-0.000758847
-0.000788239
-0.000817933
-0.000847925
-0.000878213
-0.000908793
-0.000939662
-0.000970816
-0.00100225
-0.00103397
-0.00106595
-0.00109821
-0.00113074
-0.00116353
-0.00119657
-0.00122987
-0.00126342
-0.00129722
-0.00133126
-0.00136554
-0.00140004
-0.00143478
-0.00146974
-0.00150491
-0.0015403
-0.0015759
-0.0016117
-0.0016477
-0.00168389
-0.00172027
-0.00175682
-0.00179356
-0.00183047
-0.00186754
9.32712e-06
0.00194215
0.00197968
0.00201736
0.00205517
0.00209311
0.00213117
0.00216935
0.00220764
0.00224604
0.00228453
0.00232312
0.00236179
0.00240054
0.00243936
0.00247825
0.0025172
0.00255619
0.00259524
0.00263432
0.00267343
0.00271257
0.00275173
0.00279089
0.00283006
0.00286922
0.00290837
0.00294751
0.00298661
0.00302569
0.00306472
0.0031037
0.00314263
0.0031815
0.0032203
0.00325901
0.00329764
0.00333618
0.00337462
0.00341295
0.00345116
0.00348925
0.00352721
0.00356502
0.00360269
0.00364021
0.00367756
0.00371475
0.00375175
0.00378857
0.0038252
0.00386162
0.00389784
0.00393384
0.00396961
0.00400516
0.00404046
0.00407552
0.00411032
0.00414485
0.00417912
0.0042131
0.00424681
0.00428021
0.00431332
0.00434612
0.0043786
0.00441075
0.00444258
0.00447406
0.0045052
0.00453599
0.00456641
0.00459646
0.00462614
0.00465544
0.00468434
0.00471285
0.00474095
0.00476864
0.00479591
0.00482276
0.00484917
0.00487514
0.00490067
0.00492574
0.00495035
0.0049745
0.00499817
0.00502136
0.00504407
0.00506628
0.005088
0.00510921
0.00512991
0.00515009
0.00516974
0.00518887
0.00520746
0.00522551
0.00524302
0.00525997
0.00527636
0.00529219
0.00530745
0.00532214
0.00533625
0.00534977
0.00536271
0.00537505
0.00538679
0.00539792
0.00540845
0.00541837
0.00542767
0.00543634
0.00544439
0.00545181
0.0054586
0.00546475
0.00547025
0.00547511
0.00547933
0.00548289
0.00548579
0.00548803
0.00548962
0.00549053
0.00549078
0.00549036
0.00548927
0.0054875
0.00548505
0.00548192
0.0054781
0.00547361
0.00546842
0.00546255
0.00545598
0.00544873
0.00544078
0.00543213
0.00542279
0.00541275
0.00540202
0.00539058
0.00537845
0.00536561
0.00535208
0.00533784
0.00532291
0.00530727
0.00529093
0.00527389
0.00525615
0.00523772
0.00521858
0.00519874
0.00517821
0.00515698
0.00513505
0.00511243
0.00508912
0.00506511
0.00504042
0.00501504
0.00498897
0.00496222
0.00493479
0.00490667
0.00487788
0.00484842
0.00481829
0.00478748
0.00475601
0.00472388
0.00469109
0.00465764
0.00462354
0.00458879
0.0045534
0.00451736
0.00448069
0.00444338
0.00440545
0.00436689
0.00432771
0.00428791
0.0042475
0.00420649
0.00416488
0.00412266
0.00407986
0.00403647
0.00399251
0.00394796
0.00390285
0.00385718
0.00381094
0.00376416
0.00371683
0.00366896
0.00362056
0.00357163
0.00352218
0.00347222
0.00342176
0.00337079
0.00331933
0.00326738
0.00321496
0.00316206
0.0031087
0.00305488
0.00300061
0.0029459
0.00289076
0.00283519
0.0027792
0.0027228
0.002666
0.00260881
0.00255123
0.00249327
0.00243494
0.00237624
0.0023172
0.00225781
0.00219809
0.00213804
0.00207767
0.00201699
0.00195601
0.00189474
0.00183318
0.00177135
0.00170926
0.00164691
0.00158432
0.00152149
0.00145843
0.00139515
0.00133166
0.00126798
0.0012041
0.00114004
0.00107582
0.00101143
0.000946887
0.000882204
0.000817388
0.00075245
0.000687399
0.000622244
0.000556996
0.000491664
0.000426259
0.000360789
0.000295265
0.000229697
0.000164094
9.84661e-05
3.28237e-05
-3.28237e-05
-9.84661e-05
-0.000164094
-0.000229697
-0.000295265
-0.000360789
-0.000426259
-0.000491664
-0.000556996
-0.000622244
-0.000687399
-0.00075245
-0.000817388
-0.000882204
-0.000946887
-0.00101143
-0.00107582
-0.00114004
-0.0012041
-0.00126798
-0.00133166
-0.00139515
-0.00145843
-0.00152149
-0.00158432
-0.00164691
-0.00170926
-0.00177135
-0.00183318
-0.00189474
-0.00195601
-0.00201699
-0.00207767
-0.00213804
-0.00219809
-0.00225781
-0.0023172
-0.00237624
-0.00243494
-0.00249327
-0.00255123
-0.00260881
-0.002666
-0.0027228
-0.0027792
-0.00283519
-0.00289076
-0.0029459
-0.00300061
-0.00305488
-0.0031087
-0.00316206
-0.00321496
-0.00326738
-0.00331933
-0.00337079
-0.00342176
-0.00347222
-0.00352218
-0.00357163
-0.00362056
-0.00366896
-0.00371683
-0.00376416
-0.00381094
-0.00385718
-0.00390285
-0.00394796
-0.00399251
-0.00403647
-0.00407986
-0.00412266
-0.00416488
-0.00420649
-0.0042475
-0.00428791
-0.00432771
-0.00436689
-0.00440545
-0.00444338
-0.00448069
-0.00451736
-0.0045534
-0.00458879
-0.00462354
-0.00465764
-0.00469109
-0.00472388
-0.00475601
-0.00478748
-0.00481829
-0.00484842
-0.00487788
-0.00490667
-0.00493479
-0.00496222
-0.00498897
-0.00501504
-0.00504042
-0.00506511
-0.00508912
-0.00511243
-0.00513505
-0.00515698
-0.00517821
-0.00519874
-0.00521858
-0.00523772
-0.00525615
-0.00527389
-0.00529093
-0.00530727
-0.00532291
-0.00533784
-0.00535208
-0.00536561
-0.00537845
-0.00539058
-0.00540202
-0.00541275
-0.00542279
-0.00543213
-0.00544078
-0.00544873
-0.00545598
-0.00546255
-0.00546842
-0.00547361
-0.0054781
-0.00548192
-0.00548505
-0.0054875
-0.00548927
-0.00549036
-0.00549078
-0.00549053
-0.00548962
-0.00548803
-0.00548579
-0.00548289
-0.00547933
-0.00547511
-0.00547025
-0.00546475
-0.0054586
-0.00545181
-0.00544439
-0.00543634
-0.00542767
-0.00541837
-0.00540845
-0.00539792
-0.00538679
-0.00537505
-0.00536271
-0.00534977
-0.00533625
-0.00532214
-0.00530745
-0.00529219
-0.00527636
-0.00525997
-0.00524302
-0.00522551
-0.00520746
-0.00518887
-0.00516974
-0.00515009
-0.00512991
-0.00510921
-0.005088
-0.00506628
-0.00504407
-0.00502136
-0.00499817
-0.0049745
-0.00495035
-0.00492574
-0.00490067
-0.00487514
-0.00484917
-0.00482276
-0.00479591
-0.00476864
-0.00474095
-0.00471285
-0.00468434
-0.00465544
-0.00462614
-0.00459646
-0.00456641
-0.00453599
-0.0045052
-0.00447406
-0.00444258
-0.00441075
-0.0043786
-0.00434612
-0.00431332
-0.00428021
-0.00424681
-0.0042131
-0.00417912
-0.00414485
-0.00411032
-0.00407552
-0.00404046
-0.00400516
-0.00396961
-0.00393384
-0.00389784
-0.00386162
-0.0038252
-0.00378857
-0.00375175
-0.00371475
-0.00367756
-0.00364021
-0.00360269
-0.00356502
-0.00352721
-0.00348925
-0.00345116
-0.00341295
-0.00337462
-0.00333618
-0.00329764
-0.00325901
-0.0032203
-0.0031815
-0.00314263
-0.0031037
-0.00306472
-0.00302569
-0.00298661
-0.00294751
-0.00290837
-0.00286922
-0.00283006
-0.00279089
-0.00275173
-0.00271257
-0.00267343
-0.00263432
-0.00259524
-0.00255619
-0.0025172
-0.00247825
-0.00243936
-0.00240054
-0.00236179
-0.00232312
-0.00228453
-0.00224604
-0.00220764
-0.00216935
-0.00213117
-0.00209311
-0.00205517
-0.00201736
-0.00197968
-0.00194215
-9.32712e-06
0.00186754
0.00183047
0.00179356
0.00175682
0.00172027
0.00168389
0.0016477
0.0016117
0.0015759
0.0015403
0.00150491
0.00146974
0.00143478
0.00140004
0.00136554
0.00133126
0.00129722
0.00126342
0.00122987
0.00119657
0.00116353
0.00113074
0.00109821
0.00106595
0.00103397
0.00100225
0.000970816
0.000939662
0.000908793
0.000878213
0.000847925
0.000817933
0.000788239
0.000758847
0.000729759
0.000700979
0.000672509
0.000644352
0.00061651
0.000588987
0.000561785
0.000534905
0.00050835
0.000482123
0.000456225
0.000430659
0.000405425
0.000380527
0.000355965
0.000331741
0.000307857
0.000284314
0.000261114
0.000238257
0.000215745
0.000193579
0.000171759
0.000150287
0.000129163
0.000108388
8.79622e-05
6.78866e-05
4.81615e-05
2.8787e-05
9.7634e-06
-8.9092e-06
-2.72308e-05
-4.52014e-05
-6.28211e-05
-8.00902e-05
-9.70091e-05
-0.000113578
-0.000129798
-0.000145668
-0.000161191
-0.000176366
-0.000191194
-0.000205677
-0.000219814
-0.000233608
-0.00024706
-0.00026017
-0.00027294
-0.000285371
-0.000297465
-0.000309224
-0.000320648
-0.000331739
-0.0003425
-0.000352932
-0.000363037
-0.000372816
-0.000382273
-0.000391408
-0.000400225
-0.000408725
-0.00041691
-0.000424783
-0.000432347
-0.000439604
-0.000446555
-0.000453205
-0.000459556
-0.000465609
-0.000471369
-0.000476837
-0.000482017
-0.000486912
-0.000491524
-0.000495856
-0.000499913
-0.000503696
-0.000507209
-0.000510455
-0.000513437
-0.000516159
-0.000518624
-0.000520835
-0.000522796
-0.000524511
-0.000525981
-0.000527212
-0.000528207
-0.000528969
-0.000529502
-0.00052981
-0.000529896
-0.000529764
-0.000529417
-0.00052886
-0.000528097
-0.00052713
-0.000525964
-0.000524603
-0.00052305
-0.00052131
-0.000519387
-0.000517283
-0.000515004
-0.000512553
-0.000509934
-0.000507151
-0.000504208
-0.000501109
-0.000497858
-0.000494458
-0.000490915
-0.000487232
-0.000483413
-0.000479462
-0.000475382
-0.000471179
-0.000466855
-0.000462416
-0.000457864
-0.000453204
-0.00044844
-0.000443576
-0.000438616
-0.000433563
-0.000428422
-0.000423196
-0.00041789
-0.000412507
-0.000407051
-0.000401526
-0.000395935
-0.000390284
-0.000384574
-0.000378811
-0.000372998
-0.000367138
-0.000361235
-0.000355293
-0.000349316
-0.000343307
-0.00033727
-0.000331207
-0.000325124
-0.000319023
-0.000312907
-0.000306781
-0.000300646
-0.000294508
-0.000288369
-0.000282232
-0.0002761
-0.000269977
-0.000263867
-0.000257771
-0.000251693
-0.000245636
-0.000239603
-0.000233598
-0.000227622
-0.000221679
-0.000215771
-0.000209902
-0.000204073
-0.000198288
-0.00019255
-0.00018686
-0.000181222
-0.000175637
-0.000170109
-0.000164639
-0.00015923
-0.000153884
-0.000148604
-0.00014339
-0.000138247
-0.000133175
-0.000128177
-0.000123255
-0.00011841
-0.000113644
-0.000108959
-0.000104357
-9.98401e-05
-9.54088e-05
-9.10652e-05
-8.68108e-05
-8.26469e-05
-7.85751e-05
-7.45966e-05
-7.07126e-05
-6.69245e-05
-6.32334e-05
-5.96404e-05
-5.61465e-05
-5.27527e-05
-4.946e-05
-4.62692e-05
-4.31812e-05
-4.01967e-05
-3.73165e-05
-3.45412e-05
-3.18713e-05
-2.93075e-05
-2.68502e-05
-2.44998e-05
-2.22567e-05
-2.01213e-05
-1.80937e-05
-1.61742e-05
-1.4363e-05
-1.26601e-05
-1.10655e-05
-9.57936e-06
-8.20147e-06
-6.93176e-06
-5.77004e-06
-4.71609e-06
-3.76963e-06
-2.93032e-06
-2.1978e-06
-1.57161e-06
-1.05128e-06
-6.36276e-07
-3.26005e-07
-1.19835e-07
-1.70836e-08
0
0
8

shape_id 2
num_samples 1200
0
0
138
0.5
0
0
259
-0.5
0
0
522
0.5
0
0
259
-0.5
0
0
8

shape_id 3
num_samples 756
0
0
0
0.00508303
0.00981552
-0.0375208
-0.0187904
0.0180436
0.0379298
0.034988
0.0168433
-0.00606627
-0.0254624
-0.0366969
-0.038481
-0.0319403
-0.0195685
-0.00433921
0.0109319
0.0239765
0.0332545
0.0379799
0.0380435
0.0338788
0.026302
0.0163543
0.00515925
-0.00619383
-0.0167376
-0.0256858
-0.0324651
-0.0367257
-0.038332
-0.0373419
-0.0339753
-0.0285791
-0.0215891
-0.0134934
-0.00479886
0.00399913
0.012441
0.0201223
0.0267076
0.0319389
0.0356396
0.0377137
0.0381425
0.0369774
0.0343312
0.0303679
0.0252918
0.019336
0.012751
0.0057949
-0.00127712
-0.00822081
-0.0148103
-0.0208442
-0.0261499
-0.0305868
-0.0340485
-0.0364631
-0.0377932
-0.0380342
-0.0372122
-0.0353813
-0.0326201
-0.029028
-0.0247214
-0.0198293
-0.0144896
-0.00884484
-0.00303877
0.00278742
0.00849811
0.0139661
0.0190749
0.0237207
0.0278143
0.0312815
0.0340645
0.0361218
0.0374284
0.0379753
0.0377689
0.0368301
0.0351931
0.032904
0.0300194
0.0266051
0.0227339
0.0184845
0.0139395
0.00918383
0.00430317
-0.000617427
-0.00549507
-0.0102503
-0.014808
-0.0190989
-0.02306
-0.0266354
-0.0297769
-0.0324445
-0.0346065
-0.0362396
-0.0373293
-0.0378692
-0.0378611
-0.0373145
-0.0362464
-0.0346804
-0.0326465
-0.03018
-0.0273213
-0.0241149
-0.0206085
-0.0168528
-0.0128999
-0.00880363
-0.00461777
-0.000396053
0.00380876
0.00794544
0.0119649
0.0158206
0.0194692
0.0228708
0.0259894
0.0287931
0.0312543
0.0333501
0.0350622
0.0363769
0.0372852
0.0377829
0.0378702
0.0375518
0.0368365
0.0357372
0.0342704
0.0324562
0.0303177
0.0278808
0.0251739
0.0222276
0.019074
0.0157467
0.0122802
0.00870989
0.00507109
0.00139922
-0.00227073
-0.0059045
-0.00946884
-0.0129318
-0.0162631
-0.019434
-0.022418
-0.0251907
-0.0277301
-0.0300164
-0.0320328
-0.0337649
-0.0352011
-0.0363323
-0.0371526
-0.0376584
-0.0378491
-0.0377265
-0.0372949
-0.0365614
-0.035535
-0.0342272
-0.0326513
-0.0308227
-0.0287584
-0.026477
-0.0239984
-0.0213437
-0.0185351
-0.0155954
-0.0125482
-0.00941735
-0.00622701
-0.00300137
0.000235536
0.00345998
0.00664872
0.00977914
0.0128294
0.0157786
0.0186069
0.0212956
0.0238272
0.0261857
0.0283566
0.0303266
0.0320844
0.0336198
0.0349248
0.0359927
0.0368185
0.0373991
0.0377327
0.0378196
0.0376613
0.0372611
0.0366236
0.0357549
0.0346627
0.0333557
0.031844
0.0301387
0.0282521
0.0261973
0.0239883
0.0216399
0.0191674
0.0165867
0.0139141
0.0111663
0.00836024
0.00551279
0.00264097
-0.000238313
-0.00310835
-0.00595272
-0.00875534
-0.0115006
-0.0141734
-0.0167593
-0.0192445
-0.021616
-0.0238614
-0.0259694
-0.0279295
-0.0297322
-0.0313689
-0.032832
-0.034115
-0.0352124
-0.0361197
-0.0368337
-0.037352
-0.0376733
-0.0377975
-0.0377254
-0.0374588
-0.0370005
-0.0363542
-0.0355247
-0.0345174
-0.0333387
-0.0319958
-0.0304966
-0.0288496
-0.0270639
-0.0251495
-0.0231166
-0.0209758
-0.0187384
-0.0164158
-0.0140198
-0.0115624
-0.00905565
-0.0065118
-0.00394309
-0.00136177
0.00122001
0.00379023
0.00633707
0.00884894
0.0113145
0.0137229
0.0160635
0.0183261
0.020501
0.0225792
0.0245518
0.0264108
0.0281488
0.0297588
0.0312346
0.0325705
0.0337618
0.0348041
0.0356939
0.0364283
0.0370051
0.037423
0.0376811
0.0377793
0.0377183
0.0374992
0.037124
0.0365952
0.0359159
0.0350899
0.0341215
0.0330154
0.0317771
0.0304123
0.0289273
0.0273289
0.0256242
0.0238205
0.0219256
0.0199477
0.017895
0.015776
0.0135994
0.011374
0.0091088
0.00681277
0.00449494
0.00216434
-0.000170023
-0.00249924
-0.0048145
-0.00710711
-0.00936857
-0.0115906
-0.013765
-0.015884
-0.0179401
-0.019926
-0.0218348
-0.0236599
-0.0253951
-0.0270345
-0.0285728
-0.0300049
-0.0313262
-0.0325327
-0.0336206
-0.0345867
-0.0354282
-0.0361428
-0.0367287
-0.0371845
-0.0375093
-0.0377028
-0.0377648
-0.0376959
-0.037497
-0.0371695
-0.0367152
-0.0361363
-0.0354355
-0.0346157
-0.0336803
-0.0326331
-0.0314782
-0.03022
-0.0288633
-0.0274129
-0.0258743
-0.024253
-0.0225546
-0.0207853
-0.018951
-0.0170581
-0.0151131
-0.0131225
-0.0110929
-0.00903111
-0.00694381
-0.00483782
-0.00271994
-0.000596931
0.00152446
0.00363757
0.0057358
0.00781265
0.00986175
0.0118769
0.0138519
0.015781
0.0176583
0.0194785
0.0212361
0.0229262
0.0245439
0.0260846
0.0275441
0.0289183
0.0302036
0.0313965
0.0324938
0.0334928
0.0343909
0.035186
0.0358762
0.03646
0.0369361
0.0373036
0.037562
0.0377111
0.0377508
0.0376816
0.0375041
0.0372195
0.0368289
0.0363339
0.0357365
0.0350388
0.0342432
0.0333524
0.0323693
0.0312971
0.0301391
0.028899
0.0275805
0.0261877
0.0247248
0.023196
0.0216058
0.0199589
0.01826
0.016514
0.0147257
0.0129002
0.0110425
0.00915789
0.00725143
0.00532832
0.00339377
0.00145296
-0.000488944
-0.0024268
-0.00435552
-0.00627007
-0.00816551
-0.010037
-0.0118796
-0.0136889
-0.0154601
-0.017189
-0.0188712
-0.0205025
-0.0220791
-0.0235971
-0.0250529
-0.026443
-0.0277643
-0.0290135
-0.0301879
-0.0312849
-0.032302
-0.0332369
-0.0340877
-0.0348526
-0.03553
-0.0361186
-0.0366174
-0.0370254
-0.037342
-0.0375669
-0.0376997
-0.0377406
-0.0376899
-0.0375479
-0.0373154
-0.0369934
-0.0365829
-0.0360853
-0.0355021
-0.034835
-0.0340859
-0.033257
-0.0323505
-0.0313688
-0.0303146
-0.0291906
-0.0279997
-0.0267449
-0.0254294
-0.0240565
-0.0226295
-0.0211521
-0.0196278
-0.0180603
-0.0164532
-0.0148106
-0.0131362
-0.011434
-0.00970795
-0.00796205
-0.00620033
-0.00442681
-0.00264554
-0.000860537
0.000924187
0.00270465
0.0044769
0.00623702
0.00798117
0.00970554
0.0114064
0.0130801
0.014723
0.0163317
0.0179028
0.019433
0.0209191
0.022358
0.0237469
0.0250828
0.0263631
0.0275852
0.0287468
0.0298455
0.0308793
0.0318461
0.0327442
0.0335719
0.0343277
0.0350102
0.0356183
0.0361509
0.0366072
0.0369866
0.0372884
0.0375124
0.0376583
0.0377261
0.0377159
0.0376281
0.037463
0.0372213
0.0369038
0.0365112
0.0360448
0.0355057
0.0348952
