# Pulseq sequence file
# Created by MATLAB mr toolbox

# Format of blocks:
#  #  D RF  GX  GY  GZ ADC
[BLOCKS]
 1  0  1   0   0   1  0
 2  0  0   0   0   2  0
 3  1  0   0   0   0  0
 4  0  0   3   4   0  1
 5  0  0   0   0   5  0
 6  2  0   0   0   0  0
 7  0  1   0   0   1  0
 8  0  0   0   0   2  0
 9  1  0   0   0   0  0
10  0  0   6   7   0  1
11  0  0   0   0   5  0
12  2  0   0   0   0  0
13  0  1   0   0   1  0
14  0  0   0   0   2  0
15  1  0   0   0   0  0
16  0  0   8   9   0  1
17  0  0   0   0   5  0
18  2  0   0   0   0  0
19  0  1   0   0   1  0
20  0  0   0   0   2  0
21  1  0   0   0   0  0
22  0  0  10  11   0  1
23  0  0   0   0   5  0
24  2  0   0   0   0  0
25  0  1   0   0   1  0
26  0  0   0   0   2  0
27  1  0   0   0   0  0
28  0  0  12   3   0  1
29  0  0   0   0   5  0
30  2  0   0   0   0  0
31  0  1   0   0   1  0
32  0  0   0   0   2  0
33  1  0   0   0   0  0
34  0  0  13   6   0  1
35  0  0   0   0   5  0
36  2  0   0   0   0  0
37  0  1   0   0   1  0
38  0  0   0   0   2  0
39  1  0   0   0   0  0
40  0  0  14   8   0  1
41  0  0   0   0   5  0
42  2  0   0   0   0  0
43  0  1   0   0   1  0
44  0  0   0   0   2  0
45  1  0   0   0   0  0
46  0  0  15  10   0  1
47  0  0   0   0   5  0
48  2  0   0   0   0  0
49  0  1   0   0   1  0
50  0  0   0   0   2  0
51  1  0   0   0   0  0
52  0  0  16  12   0  1
53  0  0   0   0   5  0
54  2  0   0   0   0  0
55  0  1   0   0   1  0
56  0  0   0   0   2  0
57  1  0   0   0   0  0
58  0  0  17  13   0  1
59  0  0   0   0   5  0
60  2  0   0   0   0  0
61  0  1   0   0   1  0
62  0  0   0   0   2  0
63  1  0   0   0   0  0
64  0  0  18  14   0  1
65  0  0   0   0   5  0
66  2  0   0   0   0  0
67  0  1   0   0   1  0
68  0  0   0   0   2  0
69  1  0   0   0   0  0
70  0  0  19  15   0  1
71  0  0   0   0   5  0
72  2  0   0   0   0  0
73  0  1   0   0   1  0
74  0  0   0   0   2  0
75  1  0   0   0   0  0
76  0  0   4  16   0  1
77  0  0   0   0   5  0
78  2  0   0   0   0  0
79  0  1   0   0   1  0
80  0  0   0   0   2  0
81  1  0   0   0   0  0
82  0  0   7  17   0  1
83  0  0   0   0   5  0
84  2  0   0   0   0  0
85  0  1   0   0   1  0
86  0  0   0   0   2  0
87  1  0   0   0   0  0
88  0  0   9  18   0  1
89  0  0   0   0   5  0
90  2  0   0   0   0  0
91  0  1   0   0   1  0
92  0  0   0   0   2  0
93  1  0   0   0   0  0
94  0  0  11  19   0  1
95  0  0   0   0   5  0
96  2  0   0   0   0  0

# Format of RF events:
# id amplitude mag_id phase_id freq phase
# ..        Hz   ....     ....   Hz   rad
[RF]
1      109.717 1 2 -1333.33 0

# Format of arbitrary gradients:
# id amplitude shape_id
# ..      Hz/m     ....
[GRAD]
3  1.27199e+06 3 
4  1.25092e+06 4 
6  1.26671e+06 5 
7  1.28784e+06 6 
8  1.26145e+06 7 
9  1.28257e+06 8 
10  1.25619e+06 9 
11  1.27728e+06 10 
12  1.25092e+06 11 
13  1.28784e+06 12 
14  1.28257e+06 13 
15  1.27728e+06 14 
16  1.27199e+06 15 
17  1.26671e+06 16 
18  1.26145e+06 17 
19  1.25619e+06 18 

# Format of trapezoid gradients:
# id amplitude rise flat fall
# ..      Hz/m   us   us   us
[TRAP]
 1       533333 100 1500 100
 2      -468864  90  820  90
 5       755162 140 2120 140

# Format of ADC events:
# id num dwell delay freq phase
# ..  ..    ns    us   Hz   rad
[ADC]
 1 3064  10000   0 0 0

# Format of delays:
# id delay (us)
[DELAYS]
1 3200
2 14370

# Sequence Shapes
[SHAPES]

shape_id 1
num_samples 1600
0
0
99
4.10555e-08
1.11617e-07
2.17713e-07
3.59505e-07
5.37148e-07
7.50789e-07
1.00057e-06
1.28661e-06
1.60904e-06
1.96797e-06
2.3635e-06
2.79573e-06
3.26475e-06
3.77063e-06
4.31345e-06
4.89327e-06
5.51013e-06
6.16408e-06
6.85515e-06
7.58338e-06
8.34877e-06
9.15134e-06
9.99107e-06
1.0868e-05
1.1782e-05
1.27332e-05
1.37214e-05
1.47466e-05
1.58088e-05
1.69079e-05
1.80439e-05
1.92166e-05
2.04259e-05
2.16717e-05
2.2954e-05
2.42726e-05
2.56274e-05
2.70182e-05
2.84449e-05
2.99073e-05
3.14053e-05
3.29386e-05
3.45071e-05
3.61106e-05
3.77488e-05
3.94217e-05
4.11288e-05
4.287e-05
4.46451e-05
4.64538e-05
4.82958e-05
5.01709e-05
5.20787e-05
5.4019e-05
5.59914e-05
5.79957e-05
6.00315e-05
6.20986e-05
6.41965e-05
6.63248e-05
6.84834e-05
7.06717e-05
7.28894e-05
7.51361e-05
7.74115e-05
7.9715e-05
8.20463e-05
8.4405e-05
8.67906e-05
8.92026e-05
9.16407e-05
9.41044e-05
9.65932e-05
9.91065e-05
0.000101644
0.000104205
0.000106789
0.000109396
0.000112025
0.000114676
0.000117347
0.000120039
0.000122751
0.000125482
0.000128232
0.000131
0.000133785
0.000136588
0.000139407
0.000142241
0.000145091
0.000147955
0.000150833
0.000153724
0.000156628
0.000159543
0.00016247
0.000165407
0.000168354
0.00017131
0.000174275
0.000177247
0.000180226
0.000183212
0.000186202
0.000189198
0.000192198
0.000195201
0.000198206
0.000201213
0.000204222
0.00020723
0.000210238
0.000213244
0.000216248
0.000219249
0.000222247
0.000225239
0.000228227
0.000231208
0.000234182
0.000237147
0.000240105
0.000243052
0.000245989
0.000248915
0.000251828
0.000254728
0.000257614
0.000260486
0.000263341
0.00026618
0.000269002
0.000271805
0.000274589
0.000277352
0.000280095
0.000282815
0.000285512
0.000288186
0.000290835
0.000293458
0.000296054
0.000298623
0.000301163
0.000303674
0.000306154
0.000308603
0.00031102
0.000313403
0.000315753
0.000318067
0.000320345
0.000322586
0.00032479
0.000326954
0.000329078
0.000331162
0.000333203
0.000335202
0.000337158
0.000339068
0.000340933
0.000342751
0.000344522
0.000346244
0.000347917
0.00034954
0.000351111
0.000352629
0.000354094
0.000355505
0.000356861
0.000358161
0.000359403
0.000360588
0.000361713
0.000362779
0.000363783
0.000364726
0.000365606
0.000366422
0.000367174
0.00036786
0.000368479
0.000369031
0.000369515
0.000369929
0.000370273
0.000370546
0.000370747
0.000370875
0.000370929
0.000370909
0.000370813
0.00037064
0.00037039
0.000370062
0.000369655
0.000369167
0.000368599
0.000367949
0.000367217
0.000366401
0.0003655
0.000364515
0.000363444
0.000362286
0.000361041
0.000359707
0.000358284
0.000356772
0.000355168
0.000353473
0.000351686
0.000349806
0.000347831
0.000345763
0.000343599
0.000341339
0.000338982
0.000336528
0.000333976
0.000331325
0.000328575
0.000325724
0.000322772
0.000319719
0.000316563
0.000313305
0.000309943
0.000306477
0.000302907
0.000299231
0.000295449
0.00029156
0.000287565
0.000283462
0.00027925
0.00027493
0.000270501
0.000265962
0.000261313
0.000256552
0.000251681
0.000246698
0.000241602
0.000236394
0.000231073
0.000225638
0.000220089
0.000214426
0.000208648
0.000202755
0.000196746
0.000190622
0.000184381
0.000178024
0.00017155
0.000164959
0.00015825
0.000151424
0.000144479
0.000137417
0.000130236
0.000122936
0.000115517
0.000107979
0.000100322
9.25454e-05
8.46492e-05
7.66332e-05
6.84973e-05
6.02414e-05
5.18653e-05
4.33691e-05
3.47526e-05
2.60158e-05
1.71587e-05
8.18109e-06
-9.16883e-07
-1.01353e-05
-1.9474e-05
-2.89331e-05
-3.85126e-05
-4.82123e-05
-5.80321e-05
-6.7972e-05
-7.8032e-05
-8.82117e-05
-9.85112e-05
-0.00010893
-0.000119469
-0.000130126
-0.000140903
-0.000151799
-0.000162813
-0.000173945
-0.000185195
-0.000196564
-0.000208049
-0.000219652
-0.000231372
-0.000243209
-0.000255161
-0.00026723
-0.000279413
-0.000291712
-0.000304126
-0.000316653
-0.000329295
-0.00034205
-0.000354917
-0.000367897
-0.000380988
-0.000394191
-0.000407505
-0.000420928
-0.000434462
-0.000448104
-0.000461855
-0.000475713
-0.000489679
-0.000503751
-0.000517929
-0.000532212
-0.000546599
-0.00056109
-0.000575684
-0.000590381
-0.000605179
-0.000620077
-0.000635076
-0.000650173
-0.000665369
-0.000680662
-0.000696052
-0.000711538
-0.000727118
-0.000742792
-0.00075856
-0.000774419
-0.000790369
-0.00080641
-0.00082254
-0.000838758
-0.000855063
-0.000871455
-0.000887931
-0.000904492
-0.000921136
-0.000937862
-0.000954668
-0.000971554
-0.000988519
-0.00100556
-0.00102268
-0.00103987
-0.00105714
-0.00107448
-0.0010919
-0.00110938
-0.00112693
-0.00114455
-0.00116224
-0.00117999
-0.0011978
-0.00121568
-0.00123362
-0.00125162
-0.00126968
-0.0012878
-0.00130597
-0.0013242
0.00134248
0.00136082
0.0013792
0.00139763
0.00141611
0.00143464
0.00145321
0.00147183
0.00149048
0.00150918
0.00152792
0.00154669
0.0015655
0.00158434
0.00160322
0.00162212
0.00164106
0.00166003
0.00167902
0.00169803
0.00171707
0.00173614
0.00175522
0.00177432
0.00179343
0.00181256
0.00183171
0.00185087
0.00187003
0.00188921
0.00190839
0.00192758
0.00194677
0.00196596
0.00198515
0.00200434
0.00202353
0.00204271
0.00206189
0.00208105
0.00210021
0.00211935
0.00213848
0.00215759
0.00217668
0.00219576
0.00221481
0.00223384
0.00225285
0.00227183
0.00229078
0.0023097
0.00232859
0.00234745
0.00236626
0.00238505
0.00240379
0.00242249
0.00244115
0.00245976
0.00247832
0.00249684
0.00251531
0.00253372
0.00255208
0.00257038
0.00258863
0.00260681
0.00262494
0.002643
0.00266099
0.00267892
0.00269678
0.00271457
0.00273228
0.00274992
0.00276748
0.00278497
0.00280237
0.0028197
0.00283693
0.00285409
0.00287115
0.00288813
0.00290501
0.0029218
0.0029385
0.00295509
0.00297159
0.00298799
0.00300429
0.00302048
0.00303657
0.00305254
0.00306841
0.00308417
0.00309981
0.00311534
0.00313075
0.00314604
0.00316122
0.00317627
0.00319119
0.00320599
0.00322066
0.00323521
0.00324962
0.0032639
0.00327804
0.00329205
0.00330592
0.00331965
0.00333324
0.00334668
0.00335998
0.00337314
0.00338614
0.003399
0.0034117
0.00342426
0.00343665
0.00344889
0.00346098
0.0034729
0.00348466
0.00349626
0.0035077
0.00351897
0.00353007
0.003541
0.00355177
0.00356236
0.00357277
0.00358302
0.00359308
0.00360297
0.00361268
0.00362221
0.00363156
0.00364072
0.0036497
0.00365849
0.00366709
0.00367551
0.00368373
0.00369177
0.00369961
0.00370725
0.0037147
0.00372195
0.00372901
0.00373587
0.00374252
0.00374897
0.00375523
0.00376127
0.00376711
0.00377275
0.00377818
0.00378339
0.0037884
0.0037932
0.00379779
0.00380216
0.00380632
0.00381027
0.003814
0.00381751
0.0038208
0.00382388
0.00382673
0.00382937
0.00383178
0.00383397
0.00383594
0.00383769
0.0038392
0.0038405
0.00384157
0.00384241
0.00384302
0.0038434
0.00384356
0.00384348
0.00384318
0.00384264
0.00384187
0.00384087
0.00383964
0.00383817
0.00383647
0.00383454
0.00383237
0.00382996
0.00382732
0.00382444
0.00382133
0.00381797
0.00381438
0.00381056
0.00380649
0.00380219
0.00379764
0.00379286
0.00378784
0.00378258
0.00377708
0.00377134
0.00376536
0.00375914
0.00375268
0.00374598
0.00373904
0.00373186
0.00372444
0.00371677
0.00370887
0.00370073
0.00369234
0.00368372
0.00367486
0.00366575
0.00365641
0.00364683
0.003637
0.00362694
0.00361664
0.0036061
0.00359532
0.00358431
0.00357305
0.00356156
0.00354984
0.00353787
0.00352567
0.00351323
0.00350056
0.00348765
0.00347451
0.00346114
0.00344753
0.00343369
0.00341961
0.00340531
0.00339077
0.003376
0.00336101
0.00334578
0.00333033
0.00331465
0.00329875
0.00328261
0.00326626
0.00324968
0.00323287
0.00321584
0.00319859
0.00318113
0.00316344
0.00314553
0.0031274
0.00310906
0.0030905
0.00307173
0.00305275
0.00303355
0.00301414
0.00299452
0.00297469
0.00295465
0.0029344
0.00291395
0.0028933
0.00287244
0.00285138
0.00283012
0.00280866
0.00278701
0.00276515
0.0027431
0.00272086
0.00269842
0.0026758
0.00265298
0.00262997
0.00260678
0.00258341
0.00255985
0.0025361
0.00251218
0.00248808
0.0024638
0.00243934
0.00241471
0.00238991
0.00236493
0.00233979
0.00231448
0.002289
0.00226336
0.00223755
0.00221159
0.00218546
0.00215918
0.00213274
0.00210615
0.00207941
0.00205252
0.00202548
0.00199829
0.00197096
0.00194348
0.00191587
0.00188811
0.00186022
0.00183219
0.00180404
0.00177575
0.00174733
0.00171878
0.00169011
0.00166132
0.0016324
0.00160337
0.00157422
0.00154495
0.00151557
0.00148609
0.00145649
0.00142679
0.00139698
0.00136707
0.00133706
0.00130695
0.00127675
0.00124646
0.00121607
0.00118559
0.00115503
0.00112438
0.00109365
0.00106284
0.00103195
0.00100099
0.000969951
0.000938842
0.000907665
0.000876421
0.000845112
0.000813741
0.000782311
0.000750823
0.00071928
0.000687684
0.000656037
0.000624342
0.000592601
0.000560817
0.000528991
0.000497127
0.000465226
0.00043329
0.000401323
0.000369326
0.000337302
0.000305253
0.000273181
0.00024109
0.00020898
0.000176856
0.000144718
0.000112569
8.04126e-05
4.82499e-05
1.60837e-05
-1.60837e-05
-4.82499e-05
-8.04126e-05
-0.000112569
-0.000144718
-0.000176856
-0.00020898
-0.00024109
-0.000273181
-0.000305253
-0.000337302
-0.000369326
-0.000401323
-0.00043329
-0.000465226
-0.000497127
-0.000528991
-0.000560817
-0.000592601
-0.000624342
-0.000656037
-0.000687684
-0.00071928
-0.000750823
-0.000782311
-0.000813741
-0.000845112
-0.000876421
-0.000907665
-0.000938842
-0.000969951
-0.00100099
-0.00103195
-0.00106284
-0.00109365
-0.00112438
-0.00115503
-0.00118559
-0.00121607
-0.00124646
-0.00127675
-0.00130695
-0.00133706
-0.00136707
-0.00139698
-0.00142679
-0.00145649
-0.00148609
-0.00151557
-0.00154495
-0.00157422
-0.00160337
-0.0016324
-0.00166132
-0.00169011
-0.00171878
-0.00174733
-0.00177575
-0.00180404
-0.00183219
-0.00186022
-0.00188811
-0.00191587
-0.00194348
-0.00197096
-0.00199829
-0.00202548
-0.00205252
-0.00207941
-0.00210615
-0.00213274
-0.00215918
-0.00218546
-0.00221159
-0.00223755
-0.00226336
-0.002289
-0.00231448
-0.00233979
-0.00236493
-0.00238991
-0.00241471
-0.00243934
-0.0024638
-0.00248808
-0.00251218
-0.0025361
-0.00255985
-0.00258341
-0.00260678
-0.00262997
-0.00265298
-0.0026758
-0.00269842
-0.00272086
-0.0027431
-0.00276515
-0.00278701
-0.00280866
-0.00283012
-0.00285138
-0.00287244
-0.0028933
-0.00291395
-0.0029344
-0.00295465
-0.00297469
-0.00299452
-0.00301414
-0.00303355
-0.00305275
-0.00307173
-0.0030905
-0.00310906
-0.0031274
-0.00314553
-0.00316344
-0.00318113
-0.00319859
-0.00321584
-0.00323287
-0.00324968
-0.00326626
-0.00328261
-0.00329875
-0.00331465
-0.00333033
-0.00334578
-0.00336101
-0.003376
-0.00339077
-0.00340531
-0.00341961
-0.00343369
-0.00344753
-0.00346114
-0.00347451
-0.00348765
-0.00350056
-0.00351323
-0.00352567
-0.00353787
-0.00354984
-0.00356156
-0.00357305
-0.00358431
-0.00359532
-0.0036061
-0.00361664
-0.00362694
-0.003637
-0.00364683
-0.00365641
-0.00366575
-0.00367486
-0.00368372
-0.00369234
-0.00370073
-0.00370887
-0.00371677
-0.00372444
-0.00373186
-0.00373904
-0.00374598
-0.00375268
-0.00375914
-0.00376536
-0.00377134
-0.00377708
-0.00378258
-0.00378784
-0.00379286
-0.00379764
-0.00380219
-0.00380649
-0.00381056
-0.00381438
-0.00381797
-0.00382133
-0.00382444
-0.00382732
-0.00382996
-0.00383237
-0.00383454
-0.00383647
-0.00383817
-0.00383964
-0.00384087
-0.00384187
-0.00384264
-0.00384318
-0.00384348
-0.00384356
-0.0038434
-0.00384302
-0.00384241
-0.00384157
-0.0038405
-0.0038392
-0.00383769
-0.00383594
-0.00383397
-0.00383178
-0.00382937
-0.00382673
-0.00382388
-0.0038208
-0.00381751
-0.003814
-0.00381027
-0.00380632
-0.00380216
-0.00379779
-0.0037932
-0.0037884
-0.00378339
-0.00377818
-0.00377275
-0.00376711
-0.00376127
-0.00375523
-0.00374897
-0.00374252
-0.00373587
-0.00372901
-0.00372195
-0.0037147
-0.00370725
-0.00369961
-0.00369177
-0.00368373
-0.00367551
-0.00366709
-0.00365849
-0.0036497
-0.00364072
-0.00363156
-0.00362221
-0.00361268
-0.00360297
-0.00359308
-0.00358302
-0.00357277
-0.00356236
-0.00355177
-0.003541
-0.00353007
-0.00351897
-0.0035077
-0.00349626
-0.00348466
-0.0034729
-0.00346098
-0.00344889
-0.00343665
-0.00342426
-0.0034117
-0.003399
-0.00338614
-0.00337314
-0.00335998
-0.00334668
-0.00333324
-0.00331965
-0.00330592
-0.00329205
-0.00327804
-0.0032639
-0.00324962
-0.00323521
-0.00322066
-0.00320599
-0.00319119
-0.00317627
-0.00316122
-0.00314604
-0.00313075
-0.00311534
-0.00309981
-0.00308417
-0.00306841
-0.00305254
-0.00303657
-0.00302048
-0.00300429
-0.00298799
-0.00297159
-0.00295509
-0.0029385
-0.0029218
-0.00290501
-0.00288813
-0.00287115
-0.00285409
-0.00283693
-0.0028197
-0.00280237
-0.00278497
-0.00276748
-0.00274992
-0.00273228
-0.00271457
-0.00269678
-0.00267892
-0.00266099
-0.002643
-0.00262494
-0.00260681
-0.00258863
-0.00257038
-0.00255208
-0.00253372
-0.00251531
-0.00249684
-0.00247832
-0.00245976
-0.00244115
-0.00242249
-0.00240379
-0.00238505
-0.00236626
-0.00234745
-0.00232859
-0.0023097
-0.00229078
-0.00227183
-0.00225285
-0.00223384
-0.00221481
-0.00219576
-0.00217668
-0.00215759
-0.00213848
-0.00211935
-0.00210021
-0.00208105
-0.00206189
-0.00204271
-0.00202353
-0.00200434
-0.00198515
-0.00196596
-0.00194677
-0.00192758
-0.00190839
-0.00188921
-0.00187003
-0.00185087
-0.00183171
-0.00181256
-0.00179343
-0.00177432
-0.00175522
-0.00173614
-0.00171707
-0.00169803
-0.00167902
-0.00166003
-0.00164106
-0.00162212
-0.00160322
-0.00158434
-0.0015655
-0.00154669
-0.00152792
-0.00150918
-0.00149048
-0.00147183
-0.00145321
-0.00143464
-0.00141611
-0.00139763
-0.0013792
-0.00136082
-0.00134248
0.0013242
0.00130597
0.0012878
0.00126968
0.00125162
0.00123362
0.00121568
0.0011978
0.00117999
0.00116224
0.00114455
0.00112693
0.00110938
0.0010919
0.00107448
0.00105714
0.00103987
0.00102268
0.00100556
0.000988519
0.000971554
0.000954668
0.000937862
0.000921136
0.000904492
0.000887931
0.000871455
0.000855063
0.000838758
0.00082254
0.00080641
0.000790369
0.000774419
0.00075856
0.000742792
0.000727118
0.000711538
0.000696052
0.000680662
0.000665369
0.000650173
0.000635076
0.000620077
0.000605179
0.000590381
0.000575684
0.00056109
0.000546599
0.000532212
0.000517929
0.000503751
0.000489679
0.000475713
0.000461855
0.000448104
0.000434462
0.000420928
0.000407505
0.000394191
0.000380988
0.000367897
0.000354917
0.00034205
0.000329295
0.000316653
0.000304126
0.000291712
0.000279413
0.00026723
0.000255161
0.000243209
0.000231372
0.000219652
0.000208049
0.000196564
0.000185195
0.000173945
0.000162813
0.000151799
0.000140903
0.000130126
0.000119469
0.00010893
9.85112e-05
8.82117e-05
7.8032e-05
6.7972e-05
5.80321e-05
4.82123e-05
3.85126e-05
2.89331e-05
1.9474e-05
1.01353e-05
9.16883e-07
-8.18109e-06
-1.71587e-05
-2.60158e-05
-3.47526e-05
-4.33691e-05
-5.18653e-05
-6.02414e-05
-6.84973e-05
-7.66332e-05
-8.46492e-05
-9.25454e-05
-0.000100322
-0.000107979
-0.000115517
-0.000122936
-0.000130236
-0.000137417
-0.000144479
-0.000151424
-0.00015825
-0.000164959
-0.00017155
-0.000178024
-0.000184381
-0.000190622
-0.000196746
-0.000202755
-0.000208648
-0.000214426
-0.000220089
-0.000225638
-0.000231073
-0.000236394
-0.000241602
-0.000246698
-0.000251681
-0.000256552
-0.000261313
-0.000265962
-0.000270501
-0.00027493
-0.00027925
-0.000283462
-0.000287565
-0.00029156
-0.000295449
-0.000299231
-0.000302907
-0.000306477
-0.000309943
-0.000313305
-0.000316563
-0.000319719
-0.000322772
-0.000325724
-0.000328575
-0.000331325
-0.000333976
-0.000336528
-0.000338982
-0.000341339
-0.000343599
-0.000345763
-0.000347831
-0.000349806
-0.000351686
-0.000353473
-0.000355168
-0.000356772
-0.000358284
-0.000359707
-0.000361041
-0.000362286
-0.000363444
-0.000364515
-0.0003655
-0.000366401
-0.000367217
-0.000367949
-0.000368599
-0.000369167
-0.000369655
-0.000370062
-0.00037039
-0.00037064
-0.000370813
-0.000370909
-0.000370929
-0.000370875
-0.000370747
-0.000370546
-0.000370273
-0.000369929
-0.000369515
-0.000369031
-0.000368479
-0.00036786
-0.000367174
-0.000366422
-0.000365606
-0.000364726
-0.000363783
-0.000362779
-0.000361713
-0.000360588
-0.000359403
-0.000358161
-0.000356861
-0.000355505
-0.000354094
-0.000352629
-0.000351111
-0.00034954
-0.000347917
-0.000346244
-0.000344522
-0.000342751
-0.000340933
-0.000339068
-0.000337158
-0.000335202
-0.000333203
-0.000331162
-0.000329078
-0.000326954
-0.00032479
-0.000322586
-0.000320345
-0.000318067
-0.000315753
-0.000313403
-0.00031102
-0.000308603
-0.000306154
-0.000303674
-0.000301163
-0.000298623
-0.000296054
-0.000293458
-0.000290835
-0.000288186
-0.000285512
-0.000282815
-0.000280095
-0.000277352
-0.000274589
-0.000271805
-0.000269002
-0.00026618
-0.000263341
-0.000260486
-0.000257614
-0.000254728
-0.000251828
-0.000248915
-0.000245989
-0.000243052
-0.000240105
-0.000237147
-0.000234182
-0.000231208
-0.000228227
-0.000225239
-0.000222247
-0.000219249
-0.000216248
-0.000213244
-0.000210238
-0.00020723
-0.000204222
-0.000201213
-0.000198206
-0.000195201
-0.000192198
-0.000189198
-0.000186202
-0.000183212
-0.000180226
-0.000177247
-0.000174275
-0.00017131
-0.000168354
-0.000165407
-0.00016247
-0.000159543
-0.000156628
-0.000153724
-0.000150833
-0.000147955
-0.000145091
-0.000142241
-0.000139407
-0.000136588
-0.000133785
-0.000131
-0.000128232
-0.000125482
-0.000122751
-0.000120039
-0.000117347
-0.000114676
-0.000112025
-0.000109396
-0.000106789
-0.000104205
-0.000101644
-9.91065e-05
-9.65932e-05
-9.41044e-05
-9.16407e-05
-8.92026e-05
-8.67906e-05
-8.4405e-05
-8.20463e-05
-7.9715e-05
-7.74115e-05
-7.51361e-05
-7.28894e-05
-7.06717e-05
-6.84834e-05
-6.63248e-05
-6.41965e-05
-6.20986e-05
-6.00315e-05
-5.79957e-05
-5.59914e-05
-5.4019e-05
-5.20787e-05
-5.01709e-05
-4.82958e-05
-4.64538e-05
-4.46451e-05
-4.287e-05
-4.11288e-05
-3.94217e-05
-3.77488e-05
-3.61106e-05
-3.45071e-05
-3.29386e-05
-3.14053e-05
-2.99073e-05
-2.84449e-05
-2.70182e-05
-2.56274e-05
-2.42726e-05
-2.2954e-05
-2.16717e-05
-2.04259e-05
-1.92166e-05
-1.80439e-05
-1.69079e-05
-1.58088e-05
-1.47466e-05
-1.37214e-05
-1.27332e-05
-1.1782e-05
-1.0868e-05
-9.99107e-06
-9.15134e-06
-8.34877e-06
-7.58338e-06
-6.85515e-06
-6.16408e-06
-5.51013e-06
-4.89327e-06
-4.31345e-06
-3.77063e-06
-3.26475e-06
-2.79573e-06
-2.3635e-06
-1.96797e-06
-1.60904e-06
-1.28661e-06
-1.00057e-06
-7.50789e-07
-5.37148e-07
-3.59505e-07
-2.17713e-07
-1.11617e-07
-4.10555e-08
-5.85639e-09

shape_id 2
num_samples 1600
0
0
98
0.5
0
0
371
-0.5
0
0
748
0.5
0
0
371
-0.5

shape_id 3
num_samples 3064
0
3.41803e-05
-8.96207e-05
0.000238297
0.000266633
-0.000252891
-0.00116007
-0.000261878
0.00449472
-0.00712746
0.00812099
-0.00960096
0.0122077
-0.0141832
0.0115469
-0.00115837
-0.0129274
0.0173393
-0.00253334
-0.0172753
0.0132004
0.0127132
-0.017491
-0.0107809
0.018236
0.0129317
-0.0159167
-0.0180156
0.0089697
0.0224687
0.00345459
-0.0203871
-0.0175552
0.00718299
0.0233368
0.0129321
-0.0114789
-0.0238457
-0.0124019
0.0108147
0.0239642
0.0159151
-0.00555236
-0.022324
-0.0214283
-0.00431886
0.0157962
0.0245946
0.0165584
-0.00231001
-0.0195318
-0.0245454
-0.0148474
0.00335582
0.0195019
0.02487
0.0170348
0.000524818
-0.0160897
-0.0247392
-0.0216316
-0.00862022
0.00812159
0.0211702
0.0251175
0.0186449
0.00471749
-0.0109359
-0.0222506
-0.025131
-0.0187979
-0.0058097
0.00908889
0.0207557
0.0254003
0.0217237
0.0111516
-0.0028087
-0.015791
-0.0239407
-0.0250111
-0.0188986
-0.00752624
0.00582456
0.0174929
0.0244355
0.0249784
0.0191563
0.00859482
-0.00399013
-0.0155158
-0.0232855
-0.0255929
-0.0220512
-0.0136011
-0.00222406
0.00954794
0.0192041
0.024779
0.0252262
0.0205778
0.0118776
0.000920194
-0.0101357
-0.0191968
-0.0246219
-0.0254995
-0.0217733
-0.0142074
-0.00420959
0.00644509
0.0159349
0.0226991
0.0256819
0.0244796
0.0193721
0.0112458
0.00142538
-0.0085502
-0.0171714
-0.0231815
-0.0257503
-0.0245739
-0.0198943
-0.0124397
-0.00330088
0.00623529
0.0148695
0.0214646
0.0251887
0.0256103
0.0227367
0.0169934
0.0091532
0.000225117
-0.0086793
-0.0164848
-0.0222795
-0.0254158
-0.025575
-0.0227909
-0.0174309
-0.0101419
-0.00176638
0.0067576
0.0145025
0.0206503
0.0245757
0.0259036
0.0245391
0.0206661
0.014718
0.00732481
-0.000756818
-0.00872291
-0.015802
-0.0213282
-0.0248007
-0.025925
-0.0246328
-0.02108
-0.0156249
-0.008788
-0.00120034
0.00645668
0.0135125
0.0193654
0.0235315
0.0256821
0.0256659
0.0235155
0.0194388
0.0137959
0.00706491
-0.000200363
-0.00741669
-0.0140184
-0.0195007
-0.023457
-0.0256064
-0.0258112
-0.0240824
-0.0205747
-0.0155699
-0.00945261
-0.0026795
0.00425615
0.0108603
0.0166732
0.0213002
0.0244372
0.0258887
0.0255779
0.0235483
0.0199571
0.0150616
0.00919897
0.00276255
-0.00382573
-0.0101429
-0.0157921
-0.0204263
-0.0237693
-0.02563
-0.0259123
-0.0246183
-0.0218447
-0.0177753
-0.0126669
-0.00683271
-0.000621936
0.0056011
0.0114785
0.016679
0.0209163
0.0239633
0.0256641
0.0259398
0.0247917
0.0222983
0.0186094
0.0139364
0.00853882
0.00270992
-0.00323995
-0.00899981
-0.0142742
-0.018798
-0.0223491
-0.0247586
-0.025918
-0.0257828
-0.0243737
-0.0217734
-0.0181211
-0.0136049
-0.00845059
-0.00291092
0.0027477
0.00825784
0.0133636
0.0178324
0.0214647
0.024103
0.0256375
0.02601
0.0252157
0.0233016
0.0203636
0.0165409
0.0120091
0.00697161
0.00165034
-0.00372435
-0.00892358
-0.0137296
-0.0179447
-0.0213989
-0.0239567
-0.0255214
-0.0260385
-0.0254971
-0.0239291
-0.0214069
-0.01804
-0.0139696
-0.00936239
-0.00440342
0.000711429
0.00578329
0.010618
0.0150334
0.018866
0.0219768
0.0242558
0.025626
0.0260446
0.025505
0.0240354
0.0216974
0.0185832
0.0148113
0.0105222
0.00587245
0.00102912
-0.00383635
-0.00855426
-0.0129625
-0.0169118
-0.0202711
-0.022931
-0.0248074
-0.0258439
-0.026013
-0.0253163
-0.0237842
-0.0214742
-0.0184682
-0.01487
-0.0108007
-0.00639526
-0.00179729
0.00284535
0.00738543
0.0116809
0.0155995
0.0190223
0.0218473
0.0239924
0.0253975
0.0260258
0.0258643
0.0249243
0.0232402
0.0208679
0.0178834
0.0143793
0.0104627
0.00625093
0.00186862
-0.00255638
-0.00689664
-0.0110288
-0.014837
-0.0182159
-0.021074
-0.023335
-0.0249407
-0.0258514
-0.0260474
-0.0255287
-0.0243147
-0.0224438
-0.0199712
-0.0169681
-0.0135186
-0.00971784
-0.00566909
-0.00148085
0.00273604
0.00687135
0.0108183
0.0144763
0.0177534
0.0205685
0.0228533
0.0245537
0.025631
0.0260626
0.0258424
0.0249804
0.0235027
0.0214498
0.0188762
0.0158484
0.0124429
0.00874472
0.00484484
0.000837998
-0.00317961
-0.00711263
-0.0108688
-0.0143611
-0.0175097
-0.0202437
-0.0225024
-0.0242371
-0.0254115
-0.0260025
-0.0260006
-0.0254098
-0.0242475
-0.0225436
-0.0203397
-0.0176883
-0.014651
-0.0112973
-0.00770302
-0.00394826
-0.000115772
0.0037109
0.00744926
0.0110196
0.0143467
0.0173612
0.0200014
0.0222139
0.023955
0.0251913
0.0259003
0.0260705
0.0257021
0.0248059
0.0234036
0.0215272
0.0192175
0.0165242
0.0135038
0.010219
0.00673692
0.00312813
-0.000535165
-0.00418038
-0.00773604
-0.0111332
-0.0143066
-0.0171961
-0.0197477
-0.0219143
-0.0236567
-0.0249444
-0.0257555
-0.0260777
-0.0259077
-0.0252518
-0.0241252
-0.0225516
-0.020563
-0.0181984
-0.0155037
-0.0125303
-0.00933397
-0.00597425
-0.00251291
0.000986996
0.00446236
0.00785113
0.0110934
0.0141324
0.0169157
0.0193955
0.0215303
0.0232846
0.0246301
0.0255457
0.0260182
0.0260419
0.025619
0.0247593
0.0234798
0.0218047
0.0197645
0.0173955
0.0147394
0.0118421
0.00875322
0.00552497
0.00221147
-0.00113228
-0.00445132
-0.00769157
-0.0108007
-0.0137292
-0.0164306
-0.0188627
-0.020988
-0.0227743
-0.0241949
-0.0252294
-0.0258634
-0.0260893
-0.0259056
-0.0253174
-0.0243361
-0.022979
-0.0212691
-0.0192347
-0.0169087
-0.0143282
-0.0115339
-0.00856948
-0.00548057
-0.00231445
0.000880901
0.00405748
0.00716799
0.0101665
0.0130093
0.015655
0.0180659
0.0202078
0.0220509
0.0235697
0.024744
0.0255586
0.0260035
0.0260744
0.025772
0.0251026
0.0240776
0.0227134
0.0210309
0.0190553
0.016816
0.0143454
0.0116793
0.0088555
0.00591395
0.00289577
-0.000157182
-0.00320292
-0.00619991
-0.00910762
-0.0118871
-0.0145013
-0.016916
-0.0190997
-0.0210243
-0.0226654
-0.0240026
-0.0250197
-0.0257047
-0.0260504
-0.0260538
-0.0257165
-0.0250446
-0.0240484
-0.0227424
-0.021145
-0.0192781
-0.0171669
-0.0148397
-0.0123271
-0.00966183
-0.0068785
-0.00401274
-0.00110103
0.00181991
0.00471352
0.00754385
0.010276
0.0128767
0.0153144
0.0175598
0.0195863
0.0213701
0.0228907
0.0241307
0.0250764
0.0257178
0.0260486
0.0260662
0.0257718
0.0251705
0.0242707
0.0230845
0.0216272
0.0199173
0.017976
0.0158271
0.0134966
0.0110125
0.00840425
0.00570271
0.00293943
0.000146467
-0.00264401
-0.00540009
-0.00809053
-0.010685
-0.0131546
-0.0154719
-0.0176115
-0.0195502
-0.0212672
-0.0227441
-0.0239658
-0.0249197
-0.0255964
-0.0259898
-0.0260966
-0.0259171
-0.0254544
-0.0247148
-0.0237075
-0.0224446
-0.020941
-0.0192138
-0.0172825
-0.0151689
-0.0128961
-0.0104892
-0.00797428
-0.00537847
-0.00272952
-5.55801e-05
0.00261515
0.00525472
0.00783568
0.0103314
0.0127163
0.0149662
0.0170584
0.0189719
0.020688
0.0221899
0.0234631
0.0244956
0.025278
0.0258033
0.0260673
0.0260685
0.0258079
0.0252892
0.0245187
0.0235051
0.0222594
0.020795
0.0191272
0.0172733
0.0152523
0.0130846
0.010792
0.00839732
0.00592434
0.00339729
0.000840822
-0.00172031
-0.00426146
-0.00675836
-0.00918731
-0.0115254
-0.0137508
-0.0158429
-0.0177823
-0.0195514
-0.0211343
-0.0225168
-0.0236867
-0.0246341
-0.0253509
-0.0258315
-0.0260723
-0.026072
-0.0258316
-0.0253543
-0.0246453
-0.0237121
-0.0225639
-0.0212122
-0.0196699
-0.0179518
-0.0160739
-0.0140539
-0.0119105
-0.00966317
-0.00733252
-0.00493958
-0.00250585
-5.30382e-05
0.00239711
0.004823
0.00720342
0.00951766
0.0117457
0.0138685
0.015868
0.0177273
0.0194307
0.0209643
0.0223154
0.0234731
0.0244282
0.0251734
0.025703
0.0260133
0.0261027
0.025971
0.0256204
0.0250544
0.0242788
0.0233007
0.0221291
0.0207745
0.0192489
0.0175654
0.0157387
0.0137844
0.0117189
0.00955974
0.00732488
0.00503288
0.00270264
0.000353261
-0.00199613
-0.00432652
-0.00661915
-0.0088557
-0.0110184
-0.0130902
-0.0150548
-0.016897
-0.0186025
-0.0201583
-0.0215526
-0.022775
-0.0238164
-0.0246694
-0.0253278
-0.0257873
-0.026045
-0.0260995
-0.0259512
-0.025602
-0.0250552
-0.0243158
-0.0233902
-0.0222861
-0.0210126
-0.01958
-0.0179999
-0.0162847
-0.0144479
-0.0125039
-0.0104678
-0.00835516
-0.00618217
-0.00396534
-0.00172141
0.000532772
0.00278038
0.00500475
0.00718945
0.00931847
0.0113763
0.013348
0.0152194
0.0169772
0.0186088
0.0201028
0.0214489
0.0226376
0.0236611
0.0245123
0.0251858
0.0256774
0.025984
0.0261042
0.0260377
0.0257856
0.0253504
0.0247357
0.0239466
0.0229891
0.0218706
0.0205995
0.0191852
0.0176382
0.0159696
0.0141916
0.0123168
0.0103585
0.00833074
0.00624762
0.00412372
0.0019738
-0.000187317
-0.00234477
-0.00448384
-0.00658998
-0.00864898
-0.010647
-0.0125707
-0.0144074
-0.0161449
-0.0177718
-0.0192776
-0.0206526
-0.021888
-0.0229761
-0.02391
-0.0246841
-0.0252938
-0.0257354
-0.0260068
-0.0261066
-0.0260347
-0.0257922
-0.0253811
-0.0248048
-0.0240675
-0.0231745
-0.0221321
-0.0209475
-0.0196288
-0.0181851
-0.0166258
-0.0149615
-0.0132032
-0.0113622
-0.00945079
-0.0074812
-0.00546616
-0.00341859
-0.00135154
0.00072188
0.00278858
0.0048356
0.00685016
0.00881974
0.0107322
0.0125758
0.0143392
0.0160118
0.0175835
0.0190449
0.0203873
0.0216029
0.0226845
0.0236259
0.0244218
0.0250678
0.0255604
