# Pulseq sequence file
# Created by MATLAB mr toolbox

# Format of blocks:
#  #  D RF  GX  GY  GZ ADC
[BLOCKS]
 1  0  1   0   0   1  0
 2  0  0   0   0   2  0
 3  1  0   0   0   0  0
 4  0  0   3   4   0  1
 5  0  0   0   0   5  0
 6  2  0   0   0   0  0
 7  0  1   0   0   1  0
 8  0  0   0   0   2  0
 9  1  0   0   0   0  0
10  0  0   6   7   0  1
11  0  0   0   0   5  0
12  2  0   0   0   0  0
13  0  1   0   0   1  0
14  0  0   0   0   2  0
15  1  0   0   0   0  0
16  0  0   8   9   0  1
17  0  0   0   0   5  0
18  2  0   0   0   0  0
19  0  1   0   0   1  0
20  0  0   0   0   2  0
21  1  0   0   0   0  0
22  0  0  10  11   0  1
23  0  0   0   0   5  0
24  2  0   0   0   0  0
25  0  1   0   0   1  0
26  0  0   0   0   2  0
27  1  0   0   0   0  0
28  0  0  12   3   0  1
29  0  0   0   0   5  0
30  2  0   0   0   0  0
31  0  1   0   0   1  0
32  0  0   0   0   2  0
33  1  0   0   0   0  0
34  0  0  13   6   0  1
35  0  0   0   0   5  0
36  2  0   0   0   0  0
37  0  1   0   0   1  0
38  0  0   0   0   2  0
39  1  0   0   0   0  0
40  0  0  14   8   0  1
41  0  0   0   0   5  0
42  2  0   0   0   0  0
43  0  1   0   0   1  0
44  0  0   0   0   2  0
45  1  0   0   0   0  0
46  0  0  15  10   0  1
47  0  0   0   0   5  0
48  2  0   0   0   0  0
49  0  1   0   0   1  0
50  0  0   0   0   2  0
51  1  0   0   0   0  0
52  0  0  16  12   0  1
53  0  0   0   0   5  0
54  2  0   0   0   0  0
55  0  1   0   0   1  0
56  0  0   0   0   2  0
57  1  0   0   0   0  0
58  0  0  17  13   0  1
59  0  0   0   0   5  0
60  2  0   0   0   0  0
61  0  1   0   0   1  0
62  0  0   0   0   2  0
63  1  0   0   0   0  0
64  0  0  18  14   0  1
65  0  0   0   0   5  0
66  2  0   0   0   0  0
67  0  1   0   0   1  0
68  0  0   0   0   2  0
69  1  0   0   0   0  0
70  0  0  19  15   0  1
71  0  0   0   0   5  0
72  2  0   0   0   0  0
73  0  1   0   0   1  0
74  0  0   0   0   2  0
75  1  0   0   0   0  0
76  0  0   4  16   0  1
77  0  0   0   0   5  0
78  2  0   0   0   0  0
79  0  1   0   0   1  0
80  0  0   0   0   2  0
81  1  0   0   0   0  0
82  0  0   7  17   0  1
83  0  0   0   0   5  0
84  2  0   0   0   0  0
85  0  1   0   0   1  0
86  0  0   0   0   2  0
87  1  0   0   0   0  0
88  0  0   9  18   0  1
89  0  0   0   0   5  0
90  2  0   0   0   0  0
91  0  1   0   0   1  0
92  0  0   0   0   2  0
93  1  0   0   0   0  0
94  0  0  11  19   0  1
95  0  0   0   0   5  0
96  2  0   0   0   0  0

# Format of RF events:
# id amplitude mag_id phase_id freq phase
# ..        Hz   ....     ....   Hz   rad
[RF]
1      109.717 1 2 -1333.33 0

# Format of arbitrary gradients:
# id amplitude shape_id
# ..      Hz/m     ....
[GRAD]
3  1.27011e+06 3 
4  1.26005e+06 4 
6  1.26484e+06 5 
7  1.28596e+06 6 
8  1.25959e+06 7 
9  1.28068e+06 8 
10  1.25434e+06 9 
11  1.27539e+06 10 
12  1.26005e+06 11 
13  1.28596e+06 12 
14  1.28068e+06 13 
15  1.27539e+06 14 
16  1.27011e+06 15 
17  1.26484e+06 16 
18  1.25959e+06 17 
19  1.25434e+06 18 

# Format of trapezoid gradients:
# id amplitude rise flat fall
# ..      Hz/m   us   us   us
[TRAP]
 1       533333 100 1500 100
 2      -468864  90  820  90
 5       755162 140 2120 140

# Format of ADC events:
# id num dwell delay freq phase
# ..  ..    ns    us   Hz   rad
[ADC]
 1 2946  10000   0 0 0

# Format of delays:
# id delay (us)
[DELAYS]
1 3200
2 15550

# Sequence Shapes
[SHAPES]

shape_id 1
num_samples 1600
0
0
99
4.10555e-08
1.11617e-07
2.17713e-07
3.59505e-07
5.37148e-07
7.50789e-07
1.00057e-06
1.28661e-06
1.60904e-06
1.96797e-06
2.3635e-06
2.79573e-06
3.26475e-06
3.77063e-06
4.31345e-06
4.89327e-06
5.51013e-06
6.16408e-06
6.85515e-06
7.58338e-06
8.34877e-06
9.15134e-06
9.99107e-06
1.0868e-05
1.1782e-05
1.27332e-05
1.37214e-05
1.47466e-05
1.58088e-05
1.69079e-05
1.80439e-05
1.92166e-05
2.04259e-05
2.16717e-05
2.2954e-05
2.42726e-05
2.56274e-05
2.70182e-05
2.84449e-05
2.99073e-05
3.14053e-05
3.29386e-05
3.45071e-05
3.61106e-05
3.77488e-05
3.94217e-05
4.11288e-05
4.287e-05
4.46451e-05
4.64538e-05
4.82958e-05
5.01709e-05
5.20787e-05
5.4019e-05
5.59914e-05
5.79957e-05
6.00315e-05
6.20986e-05
6.41965e-05
6.63248e-05
6.84834e-05
7.06717e-05
7.28894e-05
7.51361e-05
7.74115e-05
7.9715e-05
8.20463e-05
8.4405e-05
8.67906e-05
8.92026e-05
9.16407e-05
9.41044e-05
9.65932e-05
9.91065e-05
0.000101644
0.000104205
0.000106789
0.000109396
0.000112025
0.000114676
0.000117347
0.000120039
0.000122751
0.000125482
0.000128232
0.000131
0.000133785
0.000136588
0.000139407
0.000142241
0.000145091
0.000147955
0.000150833
0.000153724
0.000156628
0.000159543
0.00016247
0.000165407
0.000168354
0.00017131
0.000174275
0.000177247
0.000180226
0.000183212
0.000186202
0.000189198
0.000192198
0.000195201
0.000198206
0.000201213
0.000204222
0.00020723
0.000210238
0.000213244
0.000216248
0.000219249
0.000222247
0.000225239
0.000228227
0.000231208
0.000234182
0.000237147
0.000240105
0.000243052
0.000245989
0.000248915
0.000251828
0.000254728
0.000257614
0.000260486
0.000263341
0.00026618
0.000269002
0.000271805
0.000274589
0.000277352
0.000280095
0.000282815
0.000285512
0.000288186
0.000290835
0.000293458
0.000296054
0.000298623
0.000301163
0.000303674
0.000306154
0.000308603
0.00031102
0.000313403
0.000315753
0.000318067
0.000320345
0.000322586
0.00032479
0.000326954
0.000329078
0.000331162
0.000333203
0.000335202
0.000337158
0.000339068
0.000340933
0.000342751
0.000344522
0.000346244
0.000347917
0.00034954
0.000351111
0.000352629
0.000354094
0.000355505
0.000356861
0.000358161
0.000359403
0.000360588
0.000361713
0.000362779
0.000363783
0.000364726
0.000365606
0.000366422
0.000367174
0.00036786
0.000368479
0.000369031
0.000369515
0.000369929
0.000370273
0.000370546
0.000370747
0.000370875
0.000370929
0.000370909
0.000370813
0.00037064
0.00037039
0.000370062
0.000369655
0.000369167
0.000368599
0.000367949
0.000367217
0.000366401
0.0003655
0.000364515
0.000363444
0.000362286
0.000361041
0.000359707
0.000358284
0.000356772
0.000355168
0.000353473
0.000351686
0.000349806
0.000347831
0.000345763
0.000343599
0.000341339
0.000338982
0.000336528
0.000333976
0.000331325
0.000328575
0.000325724
0.000322772
0.000319719
0.000316563
0.000313305
0.000309943
0.000306477
0.000302907
0.000299231
0.000295449
0.00029156
0.000287565
0.000283462
0.00027925
0.00027493
0.000270501
0.000265962
0.000261313
0.000256552
0.000251681
0.000246698
0.000241602
0.000236394
0.000231073
0.000225638
0.000220089
0.000214426
0.000208648
0.000202755
0.000196746
0.000190622
0.000184381
0.000178024
0.00017155
0.000164959
0.00015825
0.000151424
0.000144479
0.000137417
0.000130236
0.000122936
0.000115517
0.000107979
0.000100322
9.25454e-05
8.46492e-05
7.66332e-05
6.84973e-05
6.02414e-05
5.18653e-05
4.33691e-05
3.47526e-05
2.60158e-05
1.71587e-05
8.18109e-06
-9.16883e-07
-1.01353e-05
-1.9474e-05
-2.89331e-05
-3.85126e-05
-4.82123e-05
-5.80321e-05
-6.7972e-05
-7.8032e-05
-8.82117e-05
-9.85112e-05
-0.00010893
-0.000119469
-0.000130126
-0.000140903
-0.000151799
-0.000162813
-0.000173945
-0.000185195
-0.000196564
-0.000208049
-0.000219652
-0.000231372
-0.000243209
-0.000255161
-0.00026723
-0.000279413
-0.000291712
-0.000304126
-0.000316653
-0.000329295
-0.00034205
-0.000354917
-0.000367897
-0.000380988
-0.000394191
-0.000407505
-0.000420928
-0.000434462
-0.000448104
-0.000461855
-0.000475713
-0.000489679
-0.000503751
-0.000517929
-0.000532212
-0.000546599
-0.00056109
-0.000575684
-0.000590381
-0.000605179
-0.000620077
-0.000635076
-0.000650173
-0.000665369
-0.000680662
-0.000696052
-0.000711538
-0.000727118
-0.000742792
-0.00075856
-0.000774419
-0.000790369
-0.00080641
-0.00082254
-0.000838758
-0.000855063
-0.000871455
-0.000887931
-0.000904492
-0.000921136
-0.000937862
-0.000954668
-0.000971554
-0.000988519
-0.00100556
-0.00102268
-0.00103987
-0.00105714
-0.00107448
-0.0010919
-0.00110938
-0.00112693
-0.00114455
-0.00116224
-0.00117999
-0.0011978
-0.00121568
-0.00123362
-0.00125162
-0.00126968
-0.0012878
-0.00130597
-0.0013242
0.00134248
0.00136082
0.0013792
0.00139763
0.00141611
0.00143464
0.00145321
0.00147183
0.00149048
0.00150918
0.00152792
0.00154669
0.0015655
0.00158434
0.00160322
0.00162212
0.00164106
0.00166003
0.00167902
0.00169803
0.00171707
0.00173614
0.00175522
0.00177432
0.00179343
0.00181256
0.00183171
0.00185087
0.00187003
0.00188921
0.00190839
0.00192758
0.00194677
0.00196596
0.00198515
0.00200434
0.00202353
0.00204271
0.00206189
0.00208105
0.00210021
0.00211935
0.00213848
0.00215759
0.00217668
0.00219576
0.00221481
0.00223384
0.00225285
0.00227183
0.00229078
0.0023097
0.00232859
0.00234745
0.00236626
0.00238505
0.00240379
0.00242249
0.00244115
0.00245976
0.00247832
0.00249684
0.00251531
0.00253372
0.00255208
0.00257038
0.00258863
0.00260681
0.00262494
0.002643
0.00266099
0.00267892
0.00269678
0.00271457
0.00273228
0.00274992
0.00276748
0.00278497
0.00280237
0.0028197
0.00283693
0.00285409
0.00287115
0.00288813
0.00290501
0.0029218
0.0029385
0.00295509
0.00297159
0.00298799
0.00300429
0.00302048
0.00303657
0.00305254
0.00306841
0.00308417
0.00309981
0.00311534
0.00313075
0.00314604
0.00316122
0.00317627
0.00319119
0.00320599
0.00322066
0.00323521
0.00324962
0.0032639
0.00327804
0.00329205
0.00330592
0.00331965
0.00333324
0.00334668
0.00335998
0.00337314
0.00338614
0.003399
0.0034117
0.00342426
0.00343665
0.00344889
0.00346098
0.0034729
0.00348466
0.00349626
0.0035077
0.00351897
0.00353007
0.003541
0.00355177
0.00356236
0.00357277
0.00358302
0.00359308
0.00360297
0.00361268
0.00362221
0.00363156
0.00364072
0.0036497
0.00365849
0.00366709
0.00367551
0.00368373
0.00369177
0.00369961
0.00370725
0.0037147
0.00372195
0.00372901
0.00373587
0.00374252
0.00374897
0.00375523
0.00376127
0.00376711
0.00377275
0.00377818
0.00378339
0.0037884
0.0037932
0.00379779
0.00380216
0.00380632
0.00381027
0.003814
0.00381751
0.0038208
0.00382388
0.00382673
0.00382937
0.00383178
0.00383397
0.00383594
0.00383769
0.0038392
0.0038405
0.00384157
0.00384241
0.00384302
0.0038434
0.00384356
0.00384348
0.00384318
0.00384264
0.00384187
0.00384087
0.00383964
0.00383817
0.00383647
0.00383454
0.00383237
0.00382996
0.00382732
0.00382444
0.00382133
0.00381797
0.00381438
0.00381056
0.00380649
0.00380219
0.00379764
0.00379286
0.00378784
0.00378258
0.00377708
0.00377134
0.00376536
0.00375914
0.00375268
0.00374598
0.00373904
0.00373186
0.00372444
0.00371677
0.00370887
0.00370073
0.00369234
0.00368372
0.00367486
0.00366575
0.00365641
0.00364683
0.003637
0.00362694
0.00361664
0.0036061
0.00359532
0.00358431
0.00357305
0.00356156
0.00354984
0.00353787
0.00352567
0.00351323
0.00350056
0.00348765
0.00347451
0.00346114
0.00344753
0.00343369
0.00341961
0.00340531
0.00339077
0.003376
0.00336101
0.00334578
0.00333033
0.00331465
0.00329875
0.00328261
0.00326626
0.00324968
0.00323287
0.00321584
0.00319859
0.00318113
0.00316344
0.00314553
0.0031274
0.00310906
0.0030905
0.00307173
0.00305275
0.00303355
0.00301414
0.00299452
0.00297469
0.00295465
0.0029344
0.00291395
0.0028933
0.00287244
0.00285138
0.00283012
0.00280866
0.00278701
0.00276515
0.0027431
0.00272086
0.00269842
0.0026758
0.00265298
0.00262997
0.00260678
0.00258341
0.00255985
0.0025361
0.00251218
0.00248808
0.0024638
0.00243934
0.00241471
0.00238991
0.00236493
0.00233979
0.00231448
0.002289
0.00226336
0.00223755
0.00221159
0.00218546
0.00215918
0.00213274
0.00210615
0.00207941
0.00205252
0.00202548
0.00199829
0.00197096
0.00194348
0.00191587
0.00188811
0.00186022
0.00183219
0.00180404
0.00177575
0.00174733
0.00171878
0.00169011
0.00166132
0.0016324
0.00160337
0.00157422
0.00154495
0.00151557
0.00148609
0.00145649
0.00142679
0.00139698
0.00136707
0.00133706
0.00130695
0.00127675
0.00124646
0.00121607
0.00118559
0.00115503
0.00112438
0.00109365
0.00106284
0.00103195
0.00100099
0.000969951
0.000938842
0.000907665
0.000876421
0.000845112
0.000813741
0.000782311
0.000750823
0.00071928
0.000687684
0.000656037
0.000624342
0.000592601
0.000560817
0.000528991
0.000497127
0.000465226
0.00043329
0.000401323
0.000369326
0.000337302
0.000305253
0.000273181
0.00024109
0.00020898
0.000176856
0.000144718
0.000112569
8.04126e-05
4.82499e-05
1.60837e-05
-1.60837e-05
-4.82499e-05
-8.04126e-05
-0.000112569
-0.000144718
-0.000176856
-0.00020898
-0.00024109
-0.000273181
-0.000305253
-0.000337302
-0.000369326
-0.000401323
-0.00043329
-0.000465226
-0.000497127
-0.000528991
-0.000560817
-0.000592601
-0.000624342
-0.000656037
-0.000687684
-0.00071928
-0.000750823
-0.000782311
-0.000813741
-0.000845112
-0.000876421
-0.000907665
-0.000938842
-0.000969951
-0.00100099
-0.00103195
-0.00106284
-0.00109365
-0.00112438
-0.00115503
-0.00118559
-0.00121607
-0.00124646
-0.00127675
-0.00130695
-0.00133706
-0.00136707
-0.00139698
-0.00142679
-0.00145649
-0.00148609
-0.00151557
-0.00154495
-0.00157422
-0.00160337
-0.0016324
-0.00166132
-0.00169011
-0.00171878
-0.00174733
-0.00177575
-0.00180404
-0.00183219
-0.00186022
-0.00188811
-0.00191587
-0.00194348
-0.00197096
-0.00199829
-0.00202548
-0.00205252
-0.00207941
-0.00210615
-0.00213274
-0.00215918
-0.00218546
-0.00221159
-0.00223755
-0.00226336
-0.002289
-0.00231448
-0.00233979
-0.00236493
-0.00238991
-0.00241471
-0.00243934
-0.0024638
-0.00248808
-0.00251218
-0.0025361
-0.00255985
-0.00258341
-0.00260678
-0.00262997
-0.00265298
-0.0026758
-0.00269842
-0.00272086
-0.0027431
-0.00276515
-0.00278701
-0.00280866
-0.00283012
-0.00285138
-0.00287244
-0.0028933
-0.00291395
-0.0029344
-0.00295465
-0.00297469
-0.00299452
-0.00301414
-0.00303355
-0.00305275
-0.00307173
-0.0030905
-0.00310906
-0.0031274
-0.00314553
-0.00316344
-0.00318113
-0.00319859
-0.00321584
-0.00323287
-0.00324968
-0.00326626
-0.00328261
-0.00329875
-0.00331465
-0.00333033
-0.00334578
-0.00336101
-0.003376
-0.00339077
-0.00340531
-0.00341961
-0.00343369
-0.00344753
-0.00346114
-0.00347451
-0.00348765
-0.00350056
-0.00351323
-0.00352567
-0.00353787
-0.00354984
-0.00356156
-0.00357305
-0.00358431
-0.00359532
-0.0036061
-0.00361664
-0.00362694
-0.003637
-0.00364683
-0.00365641
-0.00366575
-0.00367486
-0.00368372
-0.00369234
-0.00370073
-0.00370887
-0.00371677
-0.00372444
-0.00373186
-0.00373904
-0.00374598
-0.00375268
-0.00375914
-0.00376536
-0.00377134
-0.00377708
-0.00378258
-0.00378784
-0.00379286
-0.00379764
-0.00380219
-0.00380649
-0.00381056
-0.00381438
-0.00381797
-0.00382133
-0.00382444
-0.00382732
-0.00382996
-0.00383237
-0.00383454
-0.00383647
-0.00383817
-0.00383964
-0.00384087
-0.00384187
-0.00384264
-0.00384318
-0.00384348
-0.00384356
-0.0038434
-0.00384302
-0.00384241
-0.00384157
-0.0038405
-0.0038392
-0.00383769
-0.00383594
-0.00383397
-0.00383178
-0.00382937
-0.00382673
-0.00382388
-0.0038208
-0.00381751
-0.003814
-0.00381027
-0.00380632
-0.00380216
-0.00379779
-0.0037932
-0.0037884
-0.00378339
-0.00377818
-0.00377275
-0.00376711
-0.00376127
-0.00375523
-0.00374897
-0.00374252
-0.00373587
-0.00372901
-0.00372195
-0.0037147
-0.00370725
-0.00369961
-0.00369177
-0.00368373
-0.00367551
-0.00366709
-0.00365849
-0.0036497
-0.00364072
-0.00363156
-0.00362221
-0.00361268
-0.00360297
-0.00359308
-0.00358302
-0.00357277
-0.00356236
-0.00355177
-0.003541
-0.00353007
-0.00351897
-0.0035077
-0.00349626
-0.00348466
-0.0034729
-0.00346098
-0.00344889
-0.00343665
-0.00342426
-0.0034117
-0.003399
-0.00338614
-0.00337314
-0.00335998
-0.00334668
-0.00333324
-0.00331965
-0.00330592
-0.00329205
-0.00327804
-0.0032639
-0.00324962
-0.00323521
-0.00322066
-0.00320599
-0.00319119
-0.00317627
-0.00316122
-0.00314604
-0.00313075
-0.00311534
-0.00309981
-0.00308417
-0.00306841
-0.00305254
-0.00303657
-0.00302048
-0.00300429
-0.00298799
-0.00297159
-0.00295509
-0.0029385
-0.0029218
-0.00290501
-0.00288813
-0.00287115
-0.00285409
-0.00283693
-0.0028197
-0.00280237
-0.00278497
-0.00276748
-0.00274992
-0.00273228
-0.00271457
-0.00269678
-0.00267892
-0.00266099
-0.002643
-0.00262494
-0.00260681
-0.00258863
-0.00257038
-0.00255208
-0.00253372
-0.00251531
-0.00249684
-0.00247832
-0.00245976
-0.00244115
-0.00242249
-0.00240379
-0.00238505
-0.00236626
-0.00234745
-0.00232859
-0.0023097
-0.00229078
-0.00227183
-0.00225285
-0.00223384
-0.00221481
-0.00219576
-0.00217668
-0.00215759
-0.00213848
-0.00211935
-0.00210021
-0.00208105
-0.00206189
-0.00204271
-0.00202353
-0.00200434
-0.00198515
-0.00196596
-0.00194677
-0.00192758
-0.00190839
-0.00188921
-0.00187003
-0.00185087
-0.00183171
-0.00181256
-0.00179343
-0.00177432
-0.00175522
-0.00173614
-0.00171707
-0.00169803
-0.00167902
-0.00166003
-0.00164106
-0.00162212
-0.00160322
-0.00158434
-0.0015655
-0.00154669
-0.00152792
-0.00150918
-0.00149048
-0.00147183
-0.00145321
-0.00143464
-0.00141611
-0.00139763
-0.0013792
-0.00136082
-0.00134248
0.0013242
0.00130597
0.0012878
0.00126968
0.00125162
0.00123362
0.00121568
0.0011978
0.00117999
0.00116224
0.00114455
0.00112693
0.00110938
0.0010919
0.00107448
0.00105714
0.00103987
0.00102268
0.00100556
0.000988519
0.000971554
0.000954668
0.000937862
0.000921136
0.000904492
0.000887931
0.000871455
0.000855063
0.000838758
0.00082254
0.00080641
0.000790369
0.000774419
0.00075856
0.000742792
0.000727118
0.000711538
0.000696052
0.000680662
0.000665369
0.000650173
0.000635076
0.000620077
0.000605179
0.000590381
0.000575684
0.00056109
0.000546599
0.000532212
0.000517929
0.000503751
0.000489679
0.000475713
0.000461855
0.000448104
0.000434462
0.000420928
0.000407505
0.000394191
0.000380988
0.000367897
0.000354917
0.00034205
0.000329295
0.000316653
0.000304126
0.000291712
0.000279413
0.00026723
0.000255161
0.000243209
0.000231372
0.000219652
0.000208049
0.000196564
0.000185195
0.000173945
0.000162813
0.000151799
0.000140903
0.000130126
0.000119469
0.00010893
9.85112e-05
8.82117e-05
7.8032e-05
6.7972e-05
5.80321e-05
4.82123e-05
3.85126e-05
2.89331e-05
1.9474e-05
1.01353e-05
9.16883e-07
-8.18109e-06
-1.71587e-05
-2.60158e-05
-3.47526e-05
-4.33691e-05
-5.18653e-05
-6.02414e-05
-6.84973e-05
-7.66332e-05
-8.46492e-05
-9.25454e-05
-0.000100322
-0.000107979
-0.000115517
-0.000122936
-0.000130236
-0.000137417
-0.000144479
-0.000151424
-0.00015825
-0.000164959
-0.00017155
-0.000178024
-0.000184381
-0.000190622
-0.000196746
-0.000202755
-0.000208648
-0.000214426
-0.000220089
-0.000225638
-0.000231073
-0.000236394
-0.000241602
-0.000246698
-0.000251681
-0.000256552
-0.000261313
-0.000265962
-0.000270501
-0.00027493
-0.00027925
-0.000283462
-0.000287565
-0.00029156
-0.000295449
-0.000299231
-0.000302907
-0.000306477
-0.000309943
-0.000313305
-0.000316563
-0.000319719
-0.000322772
-0.000325724
-0.000328575
-0.000331325
-0.000333976
-0.000336528
-0.000338982
-0.000341339
-0.000343599
-0.000345763
-0.000347831
-0.000349806
-0.000351686
-0.000353473
-0.000355168
-0.000356772
-0.000358284
-0.000359707
-0.000361041
-0.000362286
-0.000363444
-0.000364515
-0.0003655
-0.000366401
-0.000367217
-0.000367949
-0.000368599
-0.000369167
-0.000369655
-0.000370062
-0.00037039
-0.00037064
-0.000370813
-0.000370909
-0.000370929
-0.000370875
-0.000370747
-0.000370546
-0.000370273
-0.000369929
-0.000369515
-0.000369031
-0.000368479
-0.00036786
-0.000367174
-0.000366422
-0.000365606
-0.000364726
-0.000363783
-0.000362779
-0.000361713
-0.000360588
-0.000359403
-0.000358161
-0.000356861
-0.000355505
-0.000354094
-0.000352629
-0.000351111
-0.00034954
-0.000347917
-0.000346244
-0.000344522
-0.000342751
-0.000340933
-0.000339068
-0.000337158
-0.000335202
-0.000333203
-0.000331162
-0.000329078
-0.000326954
-0.00032479
-0.000322586
-0.000320345
-0.000318067
-0.000315753
-0.000313403
-0.00031102
-0.000308603
-0.000306154
-0.000303674
-0.000301163
-0.000298623
-0.000296054
-0.000293458
-0.000290835
-0.000288186
-0.000285512
-0.000282815
-0.000280095
-0.000277352
-0.000274589
-0.000271805
-0.000269002
-0.00026618
-0.000263341
-0.000260486
-0.000257614
-0.000254728
-0.000251828
-0.000248915
-0.000245989
-0.000243052
-0.000240105
-0.000237147
-0.000234182
-0.000231208
-0.000228227
-0.000225239
-0.000222247
-0.000219249
-0.000216248
-0.000213244
-0.000210238
-0.00020723
-0.000204222
-0.000201213
-0.000198206
-0.000195201
-0.000192198
-0.000189198
-0.000186202
-0.000183212
-0.000180226
-0.000177247
-0.000174275
-0.00017131
-0.000168354
-0.000165407
-0.00016247
-0.000159543
-0.000156628
-0.000153724
-0.000150833
-0.000147955
-0.000145091
-0.000142241
-0.000139407
-0.000136588
-0.000133785
-0.000131
-0.000128232
-0.000125482
-0.000122751
-0.000120039
-0.000117347
-0.000114676
-0.000112025
-0.000109396
-0.000106789
-0.000104205
-0.000101644
-9.91065e-05
-9.65932e-05
-9.41044e-05
-9.16407e-05
-8.92026e-05
-8.67906e-05
-8.4405e-05
-8.20463e-05
-7.9715e-05
-7.74115e-05
-7.51361e-05
-7.28894e-05
-7.06717e-05
-6.84834e-05
-6.63248e-05
-6.41965e-05
-6.20986e-05
-6.00315e-05
-5.79957e-05
-5.59914e-05
-5.4019e-05
-5.20787e-05
-5.01709e-05
-4.82958e-05
-4.64538e-05
-4.46451e-05
-4.287e-05
-4.11288e-05
-3.94217e-05
-3.77488e-05
-3.61106e-05
-3.45071e-05
-3.29386e-05
-3.14053e-05
-2.99073e-05
-2.84449e-05
-2.70182e-05
-2.56274e-05
-2.42726e-05
-2.2954e-05
-2.16717e-05
-2.04259e-05
-1.92166e-05
-1.80439e-05
-1.69079e-05
-1.58088e-05
-1.47466e-05
-1.37214e-05
-1.27332e-05
-1.1782e-05
-1.0868e-05
-9.99107e-06
-9.15134e-06
-8.34877e-06
-7.58338e-06
-6.85515e-06
-6.16408e-06
-5.51013e-06
-4.89327e-06
-4.31345e-06
-3.77063e-06
-3.26475e-06
-2.79573e-06
-2.3635e-06
-1.96797e-06
-1.60904e-06
-1.28661e-06
-1.00057e-06
-7.50789e-07
-5.37148e-07
-3.59505e-07
-2.17713e-07
-1.11617e-07
-4.10555e-08
-5.85639e-09

shape_id 2
num_samples 1600
0
0
98
0.5
0
0
371
-0.5
0
0
748
0.5
0
0
371
-0.5

shape_id 3
num_samples 2946
0
-2.66003e-05
0.00031645
-0.000724276
0.00095083
0.000459289
-0.00411761
0.00692785
-0.00831608
0.0107287
-0.0139276
0.0137892
-0.00483551
-0.011088
0.0183425
-0.00280068
-0.0186307
0.0104394
0.0175151
-0.0117828
-0.0192199
0.00774181
0.0222039
0.0020864
-0.0212461
-0.0154356
0.0103754
0.0234906
0.00945824
-0.0148462
-0.0236312
-0.0091015
0.0138381
0.0242434
0.0139267
-0.00761212
-0.0230203
-0.0211347
-0.00418756
0.0154455
0.0247052
0.0182378
0.000741503
-0.0169937
-0.0249248
-0.0191749
-0.00339391
0.0139361
0.0242157
0.0228539
0.0109749
-0.00567233
-0.0196804
-0.0252719
-0.0205051
-0.00767704
0.00796397
0.020462
0.0253921
0.0212928
0.00990831
-0.00467909
-0.017589
-0.0247701
-0.0241927
-0.0162987
-0.0036692
0.00989418
0.0205403
0.0254354
0.0234491
0.0153226
0.00333717
-0.00937527
-0.0196667
-0.0251344
-0.0246349
-0.0184604
-0.00817206
0.00383389
0.0149041
0.0227115
0.0257198
0.0234469
0.0164933
0.00635385
-0.00492834
-0.0151847
-0.0225337
-0.0257081
-0.0242454
-0.0185214
-0.00963508
0.000822037
0.0110613
0.0194035
0.0245452
0.025745
0.0229088
0.0165681
0.00776499
-0.00213147
-0.0116442
-0.0194078
-0.0243576
-0.0258629
-0.023792
-0.0185045
-0.0107776
-0.00168255
0.00756974
0.0157911
0.0219654
0.0253669
0.0256352
0.0228019
0.0172677
0.00973792
0.00112615
-0.00756029
-0.0153387
-0.0213599
-0.0249953
-0.0258959
-0.0240173
-0.0196103
-0.0131826
-0.00543432
0.00282136
0.0107451
0.0175559
0.022606
0.0254373
0.0258183
0.023756
0.019486
0.0134408
0.00620294
-0.0015544
-0.00913067
-0.0158612
-0.0211736
-0.0246338
-0.0259778
-0.0251271
-0.0221884
-0.0174376
-0.011291
-0.00426646
0.00306205
0.0101116
0.0163365
0.0212689
0.0245519
0.0259627
0.0254244
0.0230065
0.0189145
0.0134705
0.00708577
0.000228082
-0.00661283
-0.0129604
-0.0183839
-0.022526
-0.0251249
-0.0260285
-0.0252009
-0.0227211
-0.0187737
-0.0136338
-0.00764637
-0.00120206
0.00528875
0.0114222
0.0168256
0.0211791
0.0242339
0.0258243
0.0258752
0.0244042
0.0215169
0.0173988
0.0123017
0.00652771
0.000410666
-0.00570372
-0.0114772
-0.0165973
-0.0207939
-0.0238522
-0.0256228
-0.0260278
-0.0250628
-0.0227949
-0.0193574
-0.0149407
-0.00978157
-0.00414919
0.00166877
0.00738118
0.0127079
0.0173931
0.0212172
0.0240062
0.0256392
0.0260522
0.0252397
0.0232538
0.0201998
0.0162299
0.0115354
0.00633671
0.000872853
-0.00460989
-0.00986891
-0.0146759
-0.0188265
-0.0221485
-0.0245082
-0.0258155
-0.0260267
-0.0251445
-0.0232175
-0.0203365
-0.01663
-0.0122581
-0.00740481
-0.0022704
0.00293708
0.00801031
0.0127508
0.0169766
0.0205288
0.0232772
0.0251247
0.02601
0.0259095
0.0248367
0.0228414
0.0200067
0.0164452
0.0122943
0.00771057
0.0028635
-0.0020706
-0.00691521
-0.0114998
-0.0156659
-0.0192719
-0.0221981
-0.0243502
-0.0256617
-0.026096
-0.0256466
-0.024337
-0.0222188
-0.01937
-0.0158912
-0.0119022
-0.00753776
-0.00294252
0.00173354
0.00634016
0.0107315
0.0147709
0.0183346
0.0213157
0.0236267
0.0252026
0.0260014
0.0260056
0.0252222
0.0236816
0.0214365
0.01856
0.0151426
0.0112894
0.00711713
0.00274967
-0.00168496
-0.00605869
-0.010247
-0.0141324
-0.0176076
-0.0205785
-0.0229661
-0.024709
-0.0257644
-0.0261089
-0.0257391
-0.0246708
-0.0229387
-0.0205947
-0.0177065
-0.0143553
-0.0106335
-0.00664195
-0.00248726
0.00172114
0.00587391
0.00986457
0.0135922
0.016964
0.0198972
0.0223214
0.0241798
0.0254305
0.0260471
0.0260194
0.0253529
0.024069
0.0222035
0.0198059
0.0169381
0.0136723
0.0100891
0.00627594
0.00232438
-0.00167188
-0.00561924
-0.00942641
-0.0130065
-0.0162789
-0.019171
-0.0216198
-0.023573
-0.0249904
-0.025844
-0.0261189
-0.0258132
-0.0249378
-0.0235161
-0.0215831
-0.0191847
-0.0163761
-0.0132209
-0.00978929
-0.00615654
-0.00240138
0.00139585
0.00515485
0.00879704
0.0122472
0.0154351
0.0182964
0.0207747
0.0228218
0.0243989
0.0254772
0.0260383
0.0260745
0.0255887
0.024594
0.0231136
0.0211801
0.0188346
0.0161256
0.0131085
0.0098438
0.00639622
0.00283326
-0.000776113
-0.0043628
-0.0078589
-0.011199
-0.0143212
-0.0171686
-0.0196898
-0.0218401
-0.0235822
-0.0248868
-0.0257326
-0.0261073
-0.026007
-0.0254365
-0.0244093
-0.0229465
-0.021077
-0.0188368
-0.0162678
-0.0134173
-0.0103372
-0.00708274
-0.00371174
-0.000283343
0.00314288
0.00650804
0.00975487
0.0128287
0.0156785
0.0182573
0.0205234
0.0224406
0.0239791
0.0251155
0.0258335
0.0261238
0.025984
0.0254192
0.024441
0.0230678
0.0213242
0.0192406
0.0168522
0.0141992
0.0113254
0.00827758
0.00510496
0.00185819
-0.00141139
-0.00465262
-0.00781525
-0.0108507
-0.013713
-0.0163589
-0.0187494
-0.0208493
-0.0226285
-0.0240619
-0.0251297
-0.0258181
-0.0261189
-0.0260297
-0.0255543
-0.0247017
-0.0234866
-0.021929
-0.0200535
-0.0178892
-0.0154693
-0.01283
-0.0100107
-0.00705291
-0.00399963
-0.000894935
0.0022168
0.0052915
0.00828603
0.0111588
0.0138702
0.0163833
0.0186643
0.0206829
0.0224127
0.0238314
0.0249212
0.0256692
0.0260668
0.0261107
0.0258021
0.025147
0.0241561
0.0228444
0.0212309
0.0193388
0.0171945
0.0148275
0.0122701
0.00955667
0.00672344
0.00380781
0.000847936
-0.00211778
-0.00505119
-0.00791489
-0.0106727
-0.0132901
-0.0157346
-0.0179762
-0.0199877
-0.0217451
-0.0232277
-0.0244184
-0.0253038
-0.0258747
-0.0261254
-0.0260546
-0.0256648
-0.0249622
-0.023957
-0.0226629
-0.021097
-0.0192795
-0.0172335
-0.0149846
-0.0125606
-0.00999121
-0.00730765
-0.00454215
-0.00172766
0.00110253
0.00391524
0.00667775
0.00935821
0.011926
0.0143519
0.0166088
0.0186715
0.0205175
0.0221266
0.0234818
0.0245689
0.025377
0.0258982
0.0261281
0.0260654
0.0257124
0.0250741
0.0241592
0.0229789
0.0215476
0.0198821
0.0180016
0.0159279
0.0136842
0.0112956
0.00878876
0.00619111
0.00353099
0.00083715
-0.0018615
-0.00453622
-0.00715876
-0.00970163
-0.0121384
-0.0144439
-0.0165946
-0.0185688
-0.0203466
-0.0219106
-0.0232455
-0.0243385
-0.0251795
-0.0257609
-0.0260782
-0.026129
-0.0259143
-0.0254372
-0.0247038
-0.0237226
-0.0225046
-0.021063
-0.0194132
-0.0175726
-0.0155603
-0.0133968
-0.0111044
-0.00870599
-0.00622568
-0.00368807
-0.00111816
0.00145891
0.00401811
0.00653478
0.00898483
0.011345
0.013593
0.0157079
0.0176701
0.0194616
0.0210661
0.0224692
0.0236587
0.0246242
0.0253577
0.0258532
0.0261072
0.0261183
0.0258874
0.0254178
0.0247147
0.0237855
0.0226398
0.0212888
0.0197458
0.0180256
0.0161445
0.0141202
0.0119715
0.00971814
0.00738085
0.00498083
0.00253972
7.93856e-05
-0.0023783
-0.00481162
-0.00719924
-0.00952035
-0.0117549
-0.0138836
-0.0158885
-0.0177526
-0.0194602
-0.0209973
-0.0223513
-0.0235113
-0.024468
-0.0252142
-0.0257443
-0.0260547
-0.0261436
-0.0260112
-0.0256594
-0.025092
-0.0243148
-0.023335
-0.0221616
-0.0208052
-0.0192777
-0.0175925
-0.0157641
-0.0138082
-0.0117413
-0.00958085
-0.00734485
-0.00505185
-0.00272072
-0.000370522
0.00197964
0.0043108
0.00660426
0.00884173
0.0110055
0.0130786
0.0150449
0.016889
0.0185969
0.0201556
0.0215533
0.0227797
0.0238257
0.024684
0.0253484
0.0258146
0.0260796
0.0261423
0.0260028
0.025663
0.0251262
0.0243974
0.0234828
0.0223901
0.0211283
0.0197075
0.0181392
0.0164358
0.0146106
0.0126777
0.0106522
0.00854936
0.00638533
0.0041764
0.00193915
-0.000309739
-0.00255359
-0.00477589
-0.00696035
-0.0090911
-0.0111527
-0.0131304
-0.01501
-0.0167784
-0.0184229
-0.0199323
-0.021296
-0.0225048
-0.0235507
-0.0244266
-0.0251269
-0.0256473
-0.0259847
-0.0261373
-0.0261048
-0.025888
-0.0254892
-0.0249117
-0.0241602
-0.0232407
-0.0221601
-0.0209265
-0.019549
-0.0180377
-0.0164036
-0.0146582
-0.012814
-0.010884
-0.00888171
-0.00682109
-0.00471636
-0.002582
-0.000432597
0.00171726
0.00385303
0.0059604
0.00802528
0.010034
0.0119732
0.0138303
0.0155932
0.0172505
0.0187915
0.0202065
0.0214865
0.0226236
0.0236108
0.0244421
0.0251126
0.0256186
0.0259572
0.0261268
0.0261269
0.0259581
0.0256219
0.0251213
0.0244599
0.0236424
0.0226747
0.0215634
0.0203161
0.0189412
0.0174477
0.0158456
0.0141453
0.0123578
0.0104947
0.00856781
0.00658949
0.00457223
0.0025287
0.000471707
-0.00158596
-0.00363158
-0.00565255
-0.00763652
-0.0095714
-0.0114455
-0.0132475
-0.0149668
-0.016593
-0.0181165
-0.0195286
-0.020821
-0.0219862
-0.0230177
-0.0239097
-0.0246572
-0.0252564
-0.025704
-0.0259979
-0.0261368
-0.0261204
-0.0259493
-0.025625
-0.02515
-0.0245273
-0.0237613
-0.0228569
-0.0218197
-0.0206562
-0.0193737
-0.01798
-0.0164834
-0.014893
-0.0132183
-0.0114691
-0.0096558
-0.00778898
-0.00587949
-0.00393838
-0.00197683
-6.06099e-06
0.0019627
0.00391831
0.00584973
0.00774615
0.00959698
0.011392
0.0131212
0.0147752
0.016345
0.017822
0.0191984
0.0204668
0.0216205
0.0226535
0.0235604
0.0243367
0.0249784
0.0254825
0.0258466
0.0260691
0.0261493
0.0260872
0.0258835
0.0255397
0.0250582
0.024442
0.0236947
0.0228208
0.0218254
0.0207141
0.0194933
0.0181697
0.0167508
0.0152443
0.0136585
0.0120021
0.0102839
0.00851319
0.00669949
0.00485242
0.00298175
0.00109734
