# Pulseq sequence file
# Created by MATLAB mr toolbox

# Format of blocks:
#  #  D RF  GX  GY  GZ ADC
[BLOCKS]
 1  0  1   0   0   1  0
 2  0  0   0   0   2  0
 3  1  0   0   0   0  0
 4  0  0   3   4   0  1
 5  0  0   0   0   5  0
 6  2  0   0   0   0  0
 7  0  1   0   0   1  0
 8  0  0   0   0   2  0
 9  1  0   0   0   0  0
10  0  0   6   7   0  1
11  0  0   0   0   5  0
12  2  0   0   0   0  0
13  0  1   0   0   1  0
14  0  0   0   0   2  0
15  1  0   0   0   0  0
16  0  0   8   9   0  1
17  0  0   0   0   5  0
18  2  0   0   0   0  0
19  0  1   0   0   1  0
20  0  0   0   0   2  0
21  1  0   0   0   0  0
22  0  0  10  11   0  1
23  0  0   0   0   5  0
24  2  0   0   0   0  0
25  0  1   0   0   1  0
26  0  0   0   0   2  0
27  1  0   0   0   0  0
28  0  0  12   3   0  1
29  0  0   0   0   5  0
30  2  0   0   0   0  0
31  0  1   0   0   1  0
32  0  0   0   0   2  0
33  1  0   0   0   0  0
34  0  0  13   6   0  1
35  0  0   0   0   5  0
36  2  0   0   0   0  0
37  0  1   0   0   1  0
38  0  0   0   0   2  0
39  1  0   0   0   0  0
40  0  0  14   8   0  1
41  0  0   0   0   5  0
42  2  0   0   0   0  0
43  0  1   0   0   1  0
44  0  0   0   0   2  0
45  1  0   0   0   0  0
46  0  0  15  10   0  1
47  0  0   0   0   5  0
48  2  0   0   0   0  0
49  0  1   0   0   1  0
50  0  0   0   0   2  0
51  1  0   0   0   0  0
52  0  0  16  12   0  1
53  0  0   0   0   5  0
54  2  0   0   0   0  0
55  0  1   0   0   1  0
56  0  0   0   0   2  0
57  1  0   0   0   0  0
58  0  0  17  13   0  1
59  0  0   0   0   5  0
60  2  0   0   0   0  0
61  0  1   0   0   1  0
62  0  0   0   0   2  0
63  1  0   0   0   0  0
64  0  0  18  14   0  1
65  0  0   0   0   5  0
66  2  0   0   0   0  0
67  0  1   0   0   1  0
68  0  0   0   0   2  0
69  1  0   0   0   0  0
70  0  0  19  15   0  1
71  0  0   0   0   5  0
72  2  0   0   0   0  0
73  0  1   0   0   1  0
74  0  0   0   0   2  0
75  1  0   0   0   0  0
76  0  0   4  16   0  1
77  0  0   0   0   5  0
78  2  0   0   0   0  0
79  0  1   0   0   1  0
80  0  0   0   0   2  0
81  1  0   0   0   0  0
82  0  0   7  17   0  1
83  0  0   0   0   5  0
84  2  0   0   0   0  0
85  0  1   0   0   1  0
86  0  0   0   0   2  0
87  1  0   0   0   0  0
88  0  0   9  18   0  1
89  0  0   0   0   5  0
90  2  0   0   0   0  0
91  0  1   0   0   1  0
92  0  0   0   0   2  0
93  1  0   0   0   0  0
94  0  0  11  19   0  1
95  0  0   0   0   5  0
96  2  0   0   0   0  0

# Format of RF events:
# id amplitude mag_id phase_id freq phase
# ..        Hz   ....     ....   Hz   rad
[RF]
1      109.717 1 2 -1333.33 0

# Format of arbitrary gradients:
# id amplitude shape_id
# ..      Hz/m     ....
[GRAD]
3  1.26628e+06 3 
4  1.28743e+06 4 
6  1.26107e+06 5 
7  1.28211e+06 6 
8  1.25588e+06 7 
9  1.27681e+06 8 
10   1.2507e+06 9 
11  1.27153e+06 10 
12  1.28743e+06 11 
13  1.28211e+06 12 
14  1.27681e+06 13 
15  1.27153e+06 14 
16  1.26628e+06 15 
17  1.26107e+06 16 
18  1.25588e+06 17 
19   1.2507e+06 18 

# Format of trapezoid gradients:
# id amplitude rise flat fall
# ..      Hz/m   us   us   us
[TRAP]
 1       533333 100 1500 100
 2      -468864  90  820  90
 5       755162 140 2120 140

# Format of ADC events:
# id num dwell delay freq phase
# ..  ..    ns    us   Hz   rad
[ADC]
 1 2476  10000   0 0 0

# Format of delays:
# id delay (us)
[DELAYS]
1 3200
2 20250

# Sequence Shapes
[SHAPES]

shape_id 1
num_samples 1600
0
0
99
4.10555e-08
1.11617e-07
2.17713e-07
3.59505e-07
5.37148e-07
7.50789e-07
1.00057e-06
1.28661e-06
1.60904e-06
1.96797e-06
2.3635e-06
2.79573e-06
3.26475e-06
3.77063e-06
4.31345e-06
4.89327e-06
5.51013e-06
6.16408e-06
6.85515e-06
7.58338e-06
8.34877e-06
9.15134e-06
9.99107e-06
1.0868e-05
1.1782e-05
1.27332e-05
1.37214e-05
1.47466e-05
1.58088e-05
1.69079e-05
1.80439e-05
1.92166e-05
2.04259e-05
2.16717e-05
2.2954e-05
2.42726e-05
2.56274e-05
2.70182e-05
2.84449e-05
2.99073e-05
3.14053e-05
3.29386e-05
3.45071e-05
3.61106e-05
3.77488e-05
3.94217e-05
4.11288e-05
4.287e-05
4.46451e-05
4.64538e-05
4.82958e-05
5.01709e-05
5.20787e-05
5.4019e-05
5.59914e-05
5.79957e-05
6.00315e-05
6.20986e-05
6.41965e-05
6.63248e-05
6.84834e-05
7.06717e-05
7.28894e-05
7.51361e-05
7.74115e-05
7.9715e-05
8.20463e-05
8.4405e-05
8.67906e-05
8.92026e-05
9.16407e-05
9.41044e-05
9.65932e-05
9.91065e-05
0.000101644
0.000104205
0.000106789
0.000109396
0.000112025
0.000114676
0.000117347
0.000120039
0.000122751
0.000125482
0.000128232
0.000131
0.000133785
0.000136588
0.000139407
0.000142241
0.000145091
0.000147955
0.000150833
0.000153724
0.000156628
0.000159543
0.00016247
0.000165407
0.000168354
0.00017131
0.000174275
0.000177247
0.000180226
0.000183212
0.000186202
0.000189198
0.000192198
0.000195201
0.000198206
0.000201213
0.000204222
0.00020723
0.000210238
0.000213244
0.000216248
0.000219249
0.000222247
0.000225239
0.000228227
0.000231208
0.000234182
0.000237147
0.000240105
0.000243052
0.000245989
0.000248915
0.000251828
0.000254728
0.000257614
0.000260486
0.000263341
0.00026618
0.000269002
0.000271805
0.000274589
0.000277352
0.000280095
0.000282815
0.000285512
0.000288186
0.000290835
0.000293458
0.000296054
0.000298623
0.000301163
0.000303674
0.000306154
0.000308603
0.00031102
0.000313403
0.000315753
0.000318067
0.000320345
0.000322586
0.00032479
0.000326954
0.000329078
0.000331162
0.000333203
0.000335202
0.000337158
0.000339068
0.000340933
0.000342751
0.000344522
0.000346244
0.000347917
0.00034954
0.000351111
0.000352629
0.000354094
0.000355505
0.000356861
0.000358161
0.000359403
0.000360588
0.000361713
0.000362779
0.000363783
0.000364726
0.000365606
0.000366422
0.000367174
0.00036786
0.000368479
0.000369031
0.000369515
0.000369929
0.000370273
0.000370546
0.000370747
0.000370875
0.000370929
0.000370909
0.000370813
0.00037064
0.00037039
0.000370062
0.000369655
0.000369167
0.000368599
0.000367949
0.000367217
0.000366401
0.0003655
0.000364515
0.000363444
0.000362286
0.000361041
0.000359707
0.000358284
0.000356772
0.000355168
0.000353473
0.000351686
0.000349806
0.000347831
0.000345763
0.000343599
0.000341339
0.000338982
0.000336528
0.000333976
0.000331325
0.000328575
0.000325724
0.000322772
0.000319719
0.000316563
0.000313305
0.000309943
0.000306477
0.000302907
0.000299231
0.000295449
0.00029156
0.000287565
0.000283462
0.00027925
0.00027493
0.000270501
0.000265962
0.000261313
0.000256552
0.000251681
0.000246698
0.000241602
0.000236394
0.000231073
0.000225638
0.000220089
0.000214426
0.000208648
0.000202755
0.000196746
0.000190622
0.000184381
0.000178024
0.00017155
0.000164959
0.00015825
0.000151424
0.000144479
0.000137417
0.000130236
0.000122936
0.000115517
0.000107979
0.000100322
9.25454e-05
8.46492e-05
7.66332e-05
6.84973e-05
6.02414e-05
5.18653e-05
4.33691e-05
3.47526e-05
2.60158e-05
1.71587e-05
8.18109e-06
-9.16883e-07
-1.01353e-05
-1.9474e-05
-2.89331e-05
-3.85126e-05
-4.82123e-05
-5.80321e-05
-6.7972e-05
-7.8032e-05
-8.82117e-05
-9.85112e-05
-0.00010893
-0.000119469
-0.000130126
-0.000140903
-0.000151799
-0.000162813
-0.000173945
-0.000185195
-0.000196564
-0.000208049
-0.000219652
-0.000231372
-0.000243209
-0.000255161
-0.00026723
-0.000279413
-0.000291712
-0.000304126
-0.000316653
-0.000329295
-0.00034205
-0.000354917
-0.000367897
-0.000380988
-0.000394191
-0.000407505
-0.000420928
-0.000434462
-0.000448104
-0.000461855
-0.000475713
-0.000489679
-0.000503751
-0.000517929
-0.000532212
-0.000546599
-0.00056109
-0.000575684
-0.000590381
-0.000605179
-0.000620077
-0.000635076
-0.000650173
-0.000665369
-0.000680662
-0.000696052
-0.000711538
-0.000727118
-0.000742792
-0.00075856
-0.000774419
-0.000790369
-0.00080641
-0.00082254
-0.000838758
-0.000855063
-0.000871455
-0.000887931
-0.000904492
-0.000921136
-0.000937862
-0.000954668
-0.000971554
-0.000988519
-0.00100556
-0.00102268
-0.00103987
-0.00105714
-0.00107448
-0.0010919
-0.00110938
-0.00112693
-0.00114455
-0.00116224
-0.00117999
-0.0011978
-0.00121568
-0.00123362
-0.00125162
-0.00126968
-0.0012878
-0.00130597
-0.0013242
0.00134248
0.00136082
0.0013792
0.00139763
0.00141611
0.00143464
0.00145321
0.00147183
0.00149048
0.00150918
0.00152792
0.00154669
0.0015655
0.00158434
0.00160322
0.00162212
0.00164106
0.00166003
0.00167902
0.00169803
0.00171707
0.00173614
0.00175522
0.00177432
0.00179343
0.00181256
0.00183171
0.00185087
0.00187003
0.00188921
0.00190839
0.00192758
0.00194677
0.00196596
0.00198515
0.00200434
0.00202353
0.00204271
0.00206189
0.00208105
0.00210021
0.00211935
0.00213848
0.00215759
0.00217668
0.00219576
0.00221481
0.00223384
0.00225285
0.00227183
0.00229078
0.0023097
0.00232859
0.00234745
0.00236626
0.00238505
0.00240379
0.00242249
0.00244115
0.00245976
0.00247832
0.00249684
0.00251531
0.00253372
0.00255208
0.00257038
0.00258863
0.00260681
0.00262494
0.002643
0.00266099
0.00267892
0.00269678
0.00271457
0.00273228
0.00274992
0.00276748
0.00278497
0.00280237
0.0028197
0.00283693
0.00285409
0.00287115
0.00288813
0.00290501
0.0029218
0.0029385
0.00295509
0.00297159
0.00298799
0.00300429
0.00302048
0.00303657
0.00305254
0.00306841
0.00308417
0.00309981
0.00311534
0.00313075
0.00314604
0.00316122
0.00317627
0.00319119
0.00320599
0.00322066
0.00323521
0.00324962
0.0032639
0.00327804
0.00329205
0.00330592
0.00331965
0.00333324
0.00334668
0.00335998
0.00337314
0.00338614
0.003399
0.0034117
0.00342426
0.00343665
0.00344889
0.00346098
0.0034729
0.00348466
0.00349626
0.0035077
0.00351897
0.00353007
0.003541
0.00355177
0.00356236
0.00357277
0.00358302
0.00359308
0.00360297
0.00361268
0.00362221
0.00363156
0.00364072
0.0036497
0.00365849
0.00366709
0.00367551
0.00368373
0.00369177
0.00369961
0.00370725
0.0037147
0.00372195
0.00372901
0.00373587
0.00374252
0.00374897
0.00375523
0.00376127
0.00376711
0.00377275
0.00377818
0.00378339
0.0037884
0.0037932
0.00379779
0.00380216
0.00380632
0.00381027
0.003814
0.00381751
0.0038208
0.00382388
0.00382673
0.00382937
0.00383178
0.00383397
0.00383594
0.00383769
0.0038392
0.0038405
0.00384157
0.00384241
0.00384302
0.0038434
0.00384356
0.00384348
0.00384318
0.00384264
0.00384187
0.00384087
0.00383964
0.00383817
0.00383647
0.00383454
0.00383237
0.00382996
0.00382732
0.00382444
0.00382133
0.00381797
0.00381438
0.00381056
0.00380649
0.00380219
0.00379764
0.00379286
0.00378784
0.00378258
0.00377708
0.00377134
0.00376536
0.00375914
0.00375268
0.00374598
0.00373904
0.00373186
0.00372444
0.00371677
0.00370887
0.00370073
0.00369234
0.00368372
0.00367486
0.00366575
0.00365641
0.00364683
0.003637
0.00362694
0.00361664
0.0036061
0.00359532
0.00358431
0.00357305
0.00356156
0.00354984
0.00353787
0.00352567
0.00351323
0.00350056
0.00348765
0.00347451
0.00346114
0.00344753
0.00343369
0.00341961
0.00340531
0.00339077
0.003376
0.00336101
0.00334578
0.00333033
0.00331465
0.00329875
0.00328261
0.00326626
0.00324968
0.00323287
0.00321584
0.00319859
0.00318113
0.00316344
0.00314553
0.0031274
0.00310906
0.0030905
0.00307173
0.00305275
0.00303355
0.00301414
0.00299452
0.00297469
0.00295465
0.0029344
0.00291395
0.0028933
0.00287244
0.00285138
0.00283012
0.00280866
0.00278701
0.00276515
0.0027431
0.00272086
0.00269842
0.0026758
0.00265298
0.00262997
0.00260678
0.00258341
0.00255985
0.0025361
0.00251218
0.00248808
0.0024638
0.00243934
0.00241471
0.00238991
0.00236493
0.00233979
0.00231448
0.002289
0.00226336
0.00223755
0.00221159
0.00218546
0.00215918
0.00213274
0.00210615
0.00207941
0.00205252
0.00202548
0.00199829
0.00197096
0.00194348
0.00191587
0.00188811
0.00186022
0.00183219
0.00180404
0.00177575
0.00174733
0.00171878
0.00169011
0.00166132
0.0016324
0.00160337
0.00157422
0.00154495
0.00151557
0.00148609
0.00145649
0.00142679
0.00139698
0.00136707
0.00133706
0.00130695
0.00127675
0.00124646
0.00121607
0.00118559
0.00115503
0.00112438
0.00109365
0.00106284
0.00103195
0.00100099
0.000969951
0.000938842
0.000907665
0.000876421
0.000845112
0.000813741
0.000782311
0.000750823
0.00071928
0.000687684
0.000656037
0.000624342
0.000592601
0.000560817
0.000528991
0.000497127
0.000465226
0.00043329
0.000401323
0.000369326
0.000337302
0.000305253
0.000273181
0.00024109
0.00020898
0.000176856
0.000144718
0.000112569
8.04126e-05
4.82499e-05
1.60837e-05
-1.60837e-05
-4.82499e-05
-8.04126e-05
-0.000112569
-0.000144718
-0.000176856
-0.00020898
-0.00024109
-0.000273181
-0.000305253
-0.000337302
-0.000369326
-0.000401323
-0.00043329
-0.000465226
-0.000497127
-0.000528991
-0.000560817
-0.000592601
-0.000624342
-0.000656037
-0.000687684
-0.00071928
-0.000750823
-0.000782311
-0.000813741
-0.000845112
-0.000876421
-0.000907665
-0.000938842
-0.000969951
-0.00100099
-0.00103195
-0.00106284
-0.00109365
-0.00112438
-0.00115503
-0.00118559
-0.00121607
-0.00124646
-0.00127675
-0.00130695
-0.00133706
-0.00136707
-0.00139698
-0.00142679
-0.00145649
-0.00148609
-0.00151557
-0.00154495
-0.00157422
-0.00160337
-0.0016324
-0.00166132
-0.00169011
-0.00171878
-0.00174733
-0.00177575
-0.00180404
-0.00183219
-0.00186022
-0.00188811
-0.00191587
-0.00194348
-0.00197096
-0.00199829
-0.00202548
-0.00205252
-0.00207941
-0.00210615
-0.00213274
-0.00215918
-0.00218546
-0.00221159
-0.00223755
-0.00226336
-0.002289
-0.00231448
-0.00233979
-0.00236493
-0.00238991
-0.00241471
-0.00243934
-0.0024638
-0.00248808
-0.00251218
-0.0025361
-0.00255985
-0.00258341
-0.00260678
-0.00262997
-0.00265298
-0.0026758
-0.00269842
-0.00272086
-0.0027431
-0.00276515
-0.00278701
-0.00280866
-0.00283012
-0.00285138
-0.00287244
-0.0028933
-0.00291395
-0.0029344
-0.00295465
-0.00297469
-0.00299452
-0.00301414
-0.00303355
-0.00305275
-0.00307173
-0.0030905
-0.00310906
-0.0031274
-0.00314553
-0.00316344
-0.00318113
-0.00319859
-0.00321584
-0.00323287
-0.00324968
-0.00326626
-0.00328261
-0.00329875
-0.00331465
-0.00333033
-0.00334578
-0.00336101
-0.003376
-0.00339077
-0.00340531
-0.00341961
-0.00343369
-0.00344753
-0.00346114
-0.00347451
-0.00348765
-0.00350056
-0.00351323
-0.00352567
-0.00353787
-0.00354984
-0.00356156
-0.00357305
-0.00358431
-0.00359532
-0.0036061
-0.00361664
-0.00362694
-0.003637
-0.00364683
-0.00365641
-0.00366575
-0.00367486
-0.00368372
-0.00369234
-0.00370073
-0.00370887
-0.00371677
-0.00372444
-0.00373186
-0.00373904
-0.00374598
-0.00375268
-0.00375914
-0.00376536
-0.00377134
-0.00377708
-0.00378258
-0.00378784
-0.00379286
-0.00379764
-0.00380219
-0.00380649
-0.00381056
-0.00381438
-0.00381797
-0.00382133
-0.00382444
-0.00382732
-0.00382996
-0.00383237
-0.00383454
-0.00383647
-0.00383817
-0.00383964
-0.00384087
-0.00384187
-0.00384264
-0.00384318
-0.00384348
-0.00384356
-0.0038434
-0.00384302
-0.00384241
-0.00384157
-0.0038405
-0.0038392
-0.00383769
-0.00383594
-0.00383397
-0.00383178
-0.00382937
-0.00382673
-0.00382388
-0.0038208
-0.00381751
-0.003814
-0.00381027
-0.00380632
-0.00380216
-0.00379779
-0.0037932
-0.0037884
-0.00378339
-0.00377818
-0.00377275
-0.00376711
-0.00376127
-0.00375523
-0.00374897
-0.00374252
-0.00373587
-0.00372901
-0.00372195
-0.0037147
-0.00370725
-0.00369961
-0.00369177
-0.00368373
-0.00367551
-0.00366709
-0.00365849
-0.0036497
-0.00364072
-0.00363156
-0.00362221
-0.00361268
-0.00360297
-0.00359308
-0.00358302
-0.00357277
-0.00356236
-0.00355177
-0.003541
-0.00353007
-0.00351897
-0.0035077
-0.00349626
-0.00348466
-0.0034729
-0.00346098
-0.00344889
-0.00343665
-0.00342426
-0.0034117
-0.003399
-0.00338614
-0.00337314
-0.00335998
-0.00334668
-0.00333324
-0.00331965
-0.00330592
-0.00329205
-0.00327804
-0.0032639
-0.00324962
-0.00323521
-0.00322066
-0.00320599
-0.00319119
-0.00317627
-0.00316122
-0.00314604
-0.00313075
-0.00311534
-0.00309981
-0.00308417
-0.00306841
-0.00305254
-0.00303657
-0.00302048
-0.00300429
-0.00298799
-0.00297159
-0.00295509
-0.0029385
-0.0029218
-0.00290501
-0.00288813
-0.00287115
-0.00285409
-0.00283693
-0.0028197
-0.00280237
-0.00278497
-0.00276748
-0.00274992
-0.00273228
-0.00271457
-0.00269678
-0.00267892
-0.00266099
-0.002643
-0.00262494
-0.00260681
-0.00258863
-0.00257038
-0.00255208
-0.00253372
-0.00251531
-0.00249684
-0.00247832
-0.00245976
-0.00244115
-0.00242249
-0.00240379
-0.00238505
-0.00236626
-0.00234745
-0.00232859
-0.0023097
-0.00229078
-0.00227183
-0.00225285
-0.00223384
-0.00221481
-0.00219576
-0.00217668
-0.00215759
-0.00213848
-0.00211935
-0.00210021
-0.00208105
-0.00206189
-0.00204271
-0.00202353
-0.00200434
-0.00198515
-0.00196596
-0.00194677
-0.00192758
-0.00190839
-0.00188921
-0.00187003
-0.00185087
-0.00183171
-0.00181256
-0.00179343
-0.00177432
-0.00175522
-0.00173614
-0.00171707
-0.00169803
-0.00167902
-0.00166003
-0.00164106
-0.00162212
-0.00160322
-0.00158434
-0.0015655
-0.00154669
-0.00152792
-0.00150918
-0.00149048
-0.00147183
-0.00145321
-0.00143464
-0.00141611
-0.00139763
-0.0013792
-0.00136082
-0.00134248
0.0013242
0.00130597
0.0012878
0.00126968
0.00125162
0.00123362
0.00121568
0.0011978
0.00117999
0.00116224
0.00114455
0.00112693
0.00110938
0.0010919
0.00107448
0.00105714
0.00103987
0.00102268
0.00100556
0.000988519
0.000971554
0.000954668
0.000937862
0.000921136
0.000904492
0.000887931
0.000871455
0.000855063
0.000838758
0.00082254
0.00080641
0.000790369
0.000774419
0.00075856
0.000742792
0.000727118
0.000711538
0.000696052
0.000680662
0.000665369
0.000650173
0.000635076
0.000620077
0.000605179
0.000590381
0.000575684
0.00056109
0.000546599
0.000532212
0.000517929
0.000503751
0.000489679
0.000475713
0.000461855
0.000448104
0.000434462
0.000420928
0.000407505
0.000394191
0.000380988
0.000367897
0.000354917
0.00034205
0.000329295
0.000316653
0.000304126
0.000291712
0.000279413
0.00026723
0.000255161
0.000243209
0.000231372
0.000219652
0.000208049
0.000196564
0.000185195
0.000173945
0.000162813
0.000151799
0.000140903
0.000130126
0.000119469
0.00010893
9.85112e-05
8.82117e-05
7.8032e-05
6.7972e-05
5.80321e-05
4.82123e-05
3.85126e-05
2.89331e-05
1.9474e-05
1.01353e-05
9.16883e-07
-8.18109e-06
-1.71587e-05
-2.60158e-05
-3.47526e-05
-4.33691e-05
-5.18653e-05
-6.02414e-05
-6.84973e-05
-7.66332e-05
-8.46492e-05
-9.25454e-05
-0.000100322
-0.000107979
-0.000115517
-0.000122936
-0.000130236
-0.000137417
-0.000144479
-0.000151424
-0.00015825
-0.000164959
-0.00017155
-0.000178024
-0.000184381
-0.000190622
-0.000196746
-0.000202755
-0.000208648
-0.000214426
-0.000220089
-0.000225638
-0.000231073
-0.000236394
-0.000241602
-0.000246698
-0.000251681
-0.000256552
-0.000261313
-0.000265962
-0.000270501
-0.00027493
-0.00027925
-0.000283462
-0.000287565
-0.00029156
-0.000295449
-0.000299231
-0.000302907
-0.000306477
-0.000309943
-0.000313305
-0.000316563
-0.000319719
-0.000322772
-0.000325724
-0.000328575
-0.000331325
-0.000333976
-0.000336528
-0.000338982
-0.000341339
-0.000343599
-0.000345763
-0.000347831
-0.000349806
-0.000351686
-0.000353473
-0.000355168
-0.000356772
-0.000358284
-0.000359707
-0.000361041
-0.000362286
-0.000363444
-0.000364515
-0.0003655
-0.000366401
-0.000367217
-0.000367949
-0.000368599
-0.000369167
-0.000369655
-0.000370062
-0.00037039
-0.00037064
-0.000370813
-0.000370909
-0.000370929
-0.000370875
-0.000370747
-0.000370546
-0.000370273
-0.000369929
-0.000369515
-0.000369031
-0.000368479
-0.00036786
-0.000367174
-0.000366422
-0.000365606
-0.000364726
-0.000363783
-0.000362779
-0.000361713
-0.000360588
-0.000359403
-0.000358161
-0.000356861
-0.000355505
-0.000354094
-0.000352629
-0.000351111
-0.00034954
-0.000347917
-0.000346244
-0.000344522
-0.000342751
-0.000340933
-0.000339068
-0.000337158
-0.000335202
-0.000333203
-0.000331162
-0.000329078
-0.000326954
-0.00032479
-0.000322586
-0.000320345
-0.000318067
-0.000315753
-0.000313403
-0.00031102
-0.000308603
-0.000306154
-0.000303674
-0.000301163
-0.000298623
-0.000296054
-0.000293458
-0.000290835
-0.000288186
-0.000285512
-0.000282815
-0.000280095
-0.000277352
-0.000274589
-0.000271805
-0.000269002
-0.00026618
-0.000263341
-0.000260486
-0.000257614
-0.000254728
-0.000251828
-0.000248915
-0.000245989
-0.000243052
-0.000240105
-0.000237147
-0.000234182
-0.000231208
-0.000228227
-0.000225239
-0.000222247
-0.000219249
-0.000216248
-0.000213244
-0.000210238
-0.00020723
-0.000204222
-0.000201213
-0.000198206
-0.000195201
-0.000192198
-0.000189198
-0.000186202
-0.000183212
-0.000180226
-0.000177247
-0.000174275
-0.00017131
-0.000168354
-0.000165407
-0.00016247
-0.000159543
-0.000156628
-0.000153724
-0.000150833
-0.000147955
-0.000145091
-0.000142241
-0.000139407
-0.000136588
-0.000133785
-0.000131
-0.000128232
-0.000125482
-0.000122751
-0.000120039
-0.000117347
-0.000114676
-0.000112025
-0.000109396
-0.000106789
-0.000104205
-0.000101644
-9.91065e-05
-9.65932e-05
-9.41044e-05
-9.16407e-05
-8.92026e-05
-8.67906e-05
-8.4405e-05
-8.20463e-05
-7.9715e-05
-7.74115e-05
-7.51361e-05
-7.28894e-05
-7.06717e-05
-6.84834e-05
-6.63248e-05
-6.41965e-05
-6.20986e-05
-6.00315e-05
-5.79957e-05
-5.59914e-05
-5.4019e-05
-5.20787e-05
-5.01709e-05
-4.82958e-05
-4.64538e-05
-4.46451e-05
-4.287e-05
-4.11288e-05
-3.94217e-05
-3.77488e-05
-3.61106e-05
-3.45071e-05
-3.29386e-05
-3.14053e-05
-2.99073e-05
-2.84449e-05
-2.70182e-05
-2.56274e-05
-2.42726e-05
-2.2954e-05
-2.16717e-05
-2.04259e-05
-1.92166e-05
-1.80439e-05
-1.69079e-05
-1.58088e-05
-1.47466e-05
-1.37214e-05
-1.27332e-05
-1.1782e-05
-1.0868e-05
-9.99107e-06
-9.15134e-06
-8.34877e-06
-7.58338e-06
-6.85515e-06
-6.16408e-06
-5.51013e-06
-4.89327e-06
-4.31345e-06
-3.77063e-06
-3.26475e-06
-2.79573e-06
-2.3635e-06
-1.96797e-06
-1.60904e-06
-1.28661e-06
-1.00057e-06
-7.50789e-07
-5.37148e-07
-3.59505e-07
-2.17713e-07
-1.11617e-07
-4.10555e-08
-5.85639e-09

shape_id 2
num_samples 1600
0
0
98
0.5
0
0
371
-0.5
0
0
748
0.5
0
0
371
-0.5

shape_id 3
num_samples 2476
0
-0.000462493
0.00332233
-0.00713333
0.00126007
0.0165082
-0.0148065
-0.0167721
0.0115947
0.0232279
0.00554887
-0.0179385
-0.0238689
-0.00948131
0.0117253
0.0243477
0.0214627
0.0064068
-0.0116174
-0.0235221
-0.0244923
-0.0151128
1.7113e-06
0.0147557
0.0240186
0.0251597
0.0184319
0.00639838
-0.00718187
-0.0185647
-0.0249849
-0.025191
-0.0195183
-0.0095885
0.00221872
0.0133624
0.0216695
0.0257064
0.0249538
0.0197898
0.0113188
0.00110462
-0.00913345
-0.0178064
-0.0236821
-0.0260287
-0.0246676
-0.0199434
-0.012626
-0.00376925
0.0054488
0.0138833
0.0205571
0.0247601
0.0261073
0.0245537
0.0203708
0.0140915
0.00643404
-0.00178529
-0.00974069
-0.0166772
-0.0219764
-0.0252038
-0.026134
-0.0247562
-0.0212593
-0.0160021
-0.00947181
-0.00223522
0.00511156
0.011992
0.0178924
0.0223962
0.025209
0.0261725
0.0252669
0.0226043
0.0184128
0.0130141
0.00679686
0.000186872
-0.00638212
-0.0124965
-0.0177875
-0.0219513
-0.0247637
-0.0260895
-0.0258853
-0.0241975
-0.0211545
-0.0169558
-0.0118571
-0.00615365
-0.000162365
0.00579581
0.0114129
0.016409
0.0205451
0.0236332
0.0255429
0.0262054
0.0256135
0.0238197
0.0209305
0.0170996
0.0125183
0.00740559
0.0019973
-0.00346523
-0.00874561
-0.0136224
-0.0178977
-0.0214047
-0.0240128
-0.025632
-0.0262145
-0.0257549
-0.0242891
-0.0218908
-0.0186675
-0.0147551
-0.0103114
-0.00550983
-0.000532103
0.00443847
0.00922373
0.0136568
0.0175876
0.0208873
0.0234523
0.0252065
0.0261032
0.0261254
0.0252857
0.0236241
0.0212066
0.0181218
0.0144772
0.0103955
0.00600979
0.00145967
-0.00311367
-0.00757163
-0.0117823
-0.0156242
-0.0189893
-0.0217863
-0.023942
-0.0254035
-0.0261386
-0.0261363
-0.0254065
-0.0239788
-0.0219015
-0.0192392
-0.0160712
-0.0124883
-0.00859048
-0.00448396
-0.000278047
0.00391764
0.00799598
0.0118551
0.0154006
0.0185479
0.0212241
0.0233691
0.0249371
0.0258971
0.0262332
0.0259449
0.0250463
0.0235654
0.0215433
0.0190328
0.0160969
0.0128071
0.00924129
0.00548237
0.00161582
-0.00227205
-0.00609605
-0.00977394
-0.0132281
-0.0163872
-0.0191873
-0.0215734
-0.0234998
-0.0249316
-0.0258443
-0.0262248
-0.026071
-0.0253914
-0.0242051
-0.0225411
-0.020437
-0.0179387
-0.015099
-0.0119763
-0.00863361
-0.00513698
-0.00155435
0.00204581
0.00559588
0.00903023
0.0122865
0.0153065
0.0180374
0.0204325
0.0224518
0.0240627
0.0252403
0.0259681
0.0262373
0.0260476
0.0254065
0.0243293
0.0228385
0.0209632
0.0187387
0.0162056
0.0134091
0.0103981
0.00722425
0.00394114
0.000603381
-0.00273436
-0.00601821
-0.00919596
-0.0122178
-0.0150372
-0.0176115
-0.0199024
-0.0218766
-0.0235063
-0.0247693
-0.0256492
-0.026136
-0.0262256
-0.0259199
-0.0252269
-0.02416
-0.0227381
-0.0209852
-0.0189297
-0.0166039
-0.0140437
-0.0112881
-0.00837797
-0.00535619
-0.00226648
0.000847015
0.00394041
0.00697067
0.00989621
0.0126774
0.0152773
0.0176615
0.0197995
0.0216641
0.0232324
0.0244857
0.0254096
0.0259944
0.026235
0.0261308
0.0256857
0.0249081
0.0238106
0.0224095
0.0207252
0.0187811
0.0166038
0.0142225
0.0116685
0.00897495
0.00617641
0.00330822
0.000406186
-0.0024939
-0.0053567
-0.00814774
-0.0108338
-0.0133834
-0.0157669
-0.0179572
-0.0199296
-0.0216625
-0.023137
-0.0243378
-0.0252528
-0.0258733
-0.0261943
-0.026214
-0.0259344
-0.0253605
-0.024501
-0.0233674
-0.0219742
-0.0203388
-0.018481
-0.0164227
-0.0141881
-0.0118028
-0.00929377
-0.00668919
-0.00401788
-0.00130905
0.00140797
0.00410409
0.00675076
0.00932025
0.0117859
0.0141226
0.0163066
0.0183162
0.0201317
0.0217354
0.0231123
0.0242496
0.0251373
0.0257679
0.0261367
0.0262414
0.0260828
0.025664
0.0249908
0.0240714
0.0229163
0.0215385
0.0199526
0.0181755
0.0162255
0.0141225
0.0118877
0.00954332
0.00711243
0.00461867
0.00208604
-0.000461295
-0.00299931
-0.00550427
-0.00795299
-0.010323
-0.012593
-0.0147423
-0.0167522
-0.0186048
-0.0202844
-0.0217765
-0.0230688
-0.0241507
-0.0250138
-0.0256515
-0.0260595
-0.0262354
-0.026179
-0.0258921
-0.0253784
-0.0246437
-0.0236957
-0.0225438
-0.0211991
-0.0196742
-0.0179831
-0.0161414
-0.0141654
-0.0120728
-0.00988181
-0.00761148
-0.00528132
-0.00291114
-0.000520928
0.00186934
0.00423987
0.00657121
0.0088444
0.0110411
0.0131439
0.015136
0.017002
0.0187273
0.020299
0.0217051
0.0229353
0.0239807
0.0248339
0.0254893
0.0259426
0.0261913
0.0262346
0.0260731
0.0257091
0.0251466
0.0243908
0.0234486
0.0223281
0.0210388
0.0195913
0.0179975
0.0162702
0.0144229
0.0124704
0.0104276
0.00831025
0.00613458
0.00391696
0.001674
-0.000577624
-0.00282134
-0.00504075
-0.00721976
-0.00934273
-0.0113945
-0.0133606
-0.0152273
-0.0169817
-0.0186116
-0.0201062
-0.0214553
-0.0226502
-0.0236831
-0.0245475
-0.0252381
-0.0257509
-0.0260832
-0.0262335
-0.0262016
-0.0259886
-0.0255967
-0.0250296
-0.024292
-0.0233895
-0.0223293
-0.0211191
-0.0197678
-0.0182853
-0.0166821
-0.0149695
-0.0131595
-0.0112644
-0.00929747
-0.00727187
-0.00520131
-0.00309961
-0.000980711
0.00114144
0.00325297
0.0053402
0.0073897
0.00938837
0.0113236
0.0131831
0.0149554
0.0166295
0.0181953
0.0196431
0.0209644
0.0221513
0.023197
0.0240956
0.0248419
0.0254321
0.0258632
0.026133
0.0262407
0.0261864
0.0259709
0.0255964
0.0250658
0.024383
0.0235528
0.0225808
0.0214737
0.0202385
0.0188833
0.0174167
0.015848
0.0141869
0.0124437
0.0106292
0.00875423
0.00683024
0.00486872
0.00288134
0.000879828
-0.00112407
-0.00311868
-0.00509247
-0.0070341
-0.00893249
-0.0107769
-0.0125569
-0.0142627
-0.0158847
-0.0174141
-0.0188425
-0.0201623
-0.0213665
-0.0224487
-0.0234034
-0.0242256
-0.0249114
-0.0254575
-0.0258613
-0.0261212
-0.0262364
-0.0262067
-0.026033
-0.0257166
-0.02526
-0.0246661
-0.0239387
-0.0230824
-0.0221021
-0.0210038
-0.0197938
-0.0184789
-0.0170668
-0.0155652
-0.0139826
-0.0123277
-0.0106095
-0.00883733
-0.0070208
-0.00516963
-0.00329366
-0.00140282
0.000492963
0.00238379
0.00425984
0.00611145
0.00792914
0.00970366
0.011426
0.0130876
0.0146801
0.0161957
0.0176268
0.0189667
0.0202087
0.021347
0.0223762
0.0232916
0.0240889
0.0247646
0.0253159
0.0257403
0.0260362
0.0262027
0.0262393
0.0261465
0.025925
0.0255765
0.0251032
0.0245077
0.0237934
0.0229643
0.0220247
0.0209797
0.0198346
0.0185953
0.0172681
0.0158597
0.0143771
0.0128276
0.0112189
0.00955878
0.00785534
0.00611676
0.00435136
0.00256755
0.000773773
-0.00102154
-0.00281
-0.00458328
-0.0063332
-0.0080517
-0.00973095
-0.0113633
-0.0129415
-0.0144583
-0.0159071
-0.0172814
-0.0185752
-0.019783
-0.0208994
-0.0219199
-0.02284
-0.0236559
-0.0243644
-0.0249626
-0.0254482
-0.0258194
-0.0260749
-0.0262141
-0.0262366
-0.0261427
-0.0259334
-0.0256097
-0.0251737
-0.0246275
-0.023974
-0.0232163
-0.0223581
-0.0214034
-0.0203568
-0.0192231
-0.0180074
-0.0167153
-0.0153527
-0.0139255
-0.0124401
-0.0109032
-0.00932132
-0.00770145
-0.0060506
-0.00437585
-0.00268439
-0.000983416
0.000719877
0.00241831
0.00410478
0.00577224
0.0074138
0.00902269
0.0105923
0.0121163
0.0135884
0.0150028
0.0163538
0.017636
0.0188445
0.0199743
0.0210213
0.0219813
0.0228508
0.0236264
0.0243054
0.0248852
0.0253639
0.0257399
0.0260119
0.0261791
0.0262413
0.0261985
0.0260512
0.0258003
0.0254471
0.0249934
0.0244412
0.0237931
0.0230518
0.0222206
0.0213031
0.020303
0.0192246
0.0180723
0.0168508
0.015565
0.0142202
0.0128217
0.0113751
0.00988607
0.00836054
0.00680445
0.00522385
0.00362485
0.00201362
0.000396325
-0.00122086
-0.00283181
-0.00443045
-0.00601075
-0.00756683
-0.0090929
-0.0105833
-0.0120326
-0.0134354
-0.0147867
-0.0160816
-0.0173153
-0.0184837
-0.0195824
-0.0206076
-0.0215558
-0.0224236
-0.0232083
-0.023907
-0.0245175
-0.0250378
-0.0254663
-0.0258016
-0.0260429
-0.0261896
-0.0262413
-0.0261981
-0.0260606
-0.0258294
-0.0255056
-0.0250907
-0.0245865
-0.0239949
-0.0233183
-0.0225594
-0.0217212
-0.0208067
-0.0198195
-0.0187633
-0.0176419
-0.0164595
-0.0152204
-0.0139292
-0.0125904
-0.011209
-0.00978973
-0.00833776
-0.0068582
-0.00535625
-0.00383716
-0.00230623
-0.000768768
0.000769916
0.00230454
0.00382984
0.00534065
0.00683183
0.00829835
0.00973531
0.0111379
0.0125014
0.0138214
0.0150935
0.0163136
0.0174777
0.018582
0.019623
0.0205974
0.0215021
0.0223343
0.0230914
0.0237711
0.0243714
0.0248904
0.0253267
0.0256791
0.0259466
0.0261285
0.0262246
0.0262347
0.026159
0.025998
0.0257525
0.0254234
0.025012
0.02452
0.0239491
0.0233014
0.0225791
0.0217848
0.0209212
0.0199913
0.0189983
0.0179453
0.0168361
0.0156742
0.0144635
0.013208
0.0119117
0.0105789
0.00921385
0.00782094
0.00640463
0.00496943
0.00351989
0.00206058
0.00059609
-0.000869002
-0.00233013
-0.00378277
-0.00522243
-0.00664468
-0.00804517
-0.00941964
-0.0107639
-0.0120739
-0.0133457
-0.0145756
-0.0157597
-0.0168947
-0.0179773
-0.0190041
-0.0199723
-0.0208791
-0.0217219
-0.0224983
-0.023206
-0.0238432
-0.0244082
-0.0248993
-0.0253153
-0.0256551
-0.025918
-0.0261033
-0.0262107
-0.02624
-0.0261913
-0.0260651
-0.0258618
-0.0255822
-0.0252274
