# Pulseq sequence file
# Created by MATLAB mr toolbox

# Format of blocks:
#  #  D RF  GX  GY  GZ ADC
[BLOCKS]
 1  0  1   0   0   1  0
 2  0  0   0   0   2  0
 3  1  0   0   0   0  0
 4  0  0   3   4   0  1
 5  0  0   0   0   5  0
 6  2  0   0   0   0  0
 7  0  1   0   0   1  0
 8  0  0   0   0   2  0
 9  1  0   0   0   0  0
10  0  0   6   7   0  1
11  0  0   0   0   5  0
12  2  0   0   0   0  0
13  0  1   0   0   1  0
14  0  0   0   0   2  0
15  1  0   0   0   0  0
16  0  0   8   9   0  1
17  0  0   0   0   5  0
18  2  0   0   0   0  0
19  0  1   0   0   1  0
20  0  0   0   0   2  0
21  1  0   0   0   0  0
22  0  0  10  11   0  1
23  0  0   0   0   5  0
24  2  0   0   0   0  0
25  0  1   0   0   1  0
26  0  0   0   0   2  0
27  1  0   0   0   0  0
28  0  0  12   3   0  1
29  0  0   0   0   5  0
30  2  0   0   0   0  0
31  0  1   0   0   1  0
32  0  0   0   0   2  0
33  1  0   0   0   0  0
34  0  0  13   6   0  1
35  0  0   0   0   5  0
36  2  0   0   0   0  0
37  0  1   0   0   1  0
38  0  0   0   0   2  0
39  1  0   0   0   0  0
40  0  0  14   8   0  1
41  0  0   0   0   5  0
42  2  0   0   0   0  0
43  0  1   0   0   1  0
44  0  0   0   0   2  0
45  1  0   0   0   0  0
46  0  0  15  10   0  1
47  0  0   0   0   5  0
48  2  0   0   0   0  0
49  0  1   0   0   1  0
50  0  0   0   0   2  0
51  1  0   0   0   0  0
52  0  0  16  12   0  1
53  0  0   0   0   5  0
54  2  0   0   0   0  0
55  0  1   0   0   1  0
56  0  0   0   0   2  0
57  1  0   0   0   0  0
58  0  0  17  13   0  1
59  0  0   0   0   5  0
60  2  0   0   0   0  0
61  0  1   0   0   1  0
62  0  0   0   0   2  0
63  1  0   0   0   0  0
64  0  0  18  14   0  1
65  0  0   0   0   5  0
66  2  0   0   0   0  0
67  0  1   0   0   1  0
68  0  0   0   0   2  0
69  1  0   0   0   0  0
70  0  0  19  15   0  1
71  0  0   0   0   5  0
72  2  0   0   0   0  0
73  0  1   0   0   1  0
74  0  0   0   0   2  0
75  1  0   0   0   0  0
76  0  0   4  16   0  1
77  0  0   0   0   5  0
78  2  0   0   0   0  0
79  0  1   0   0   1  0
80  0  0   0   0   2  0
81  1  0   0   0   0  0
82  0  0   7  17   0  1
83  0  0   0   0   5  0
84  2  0   0   0   0  0
85  0  1   0   0   1  0
86  0  0   0   0   2  0
87  1  0   0   0   0  0
88  0  0   9  18   0  1
89  0  0   0   0   5  0
90  2  0   0   0   0  0
91  0  1   0   0   1  0
92  0  0   0   0   2  0
93  1  0   0   0   0  0
94  0  0  11  19   0  1
95  0  0   0   0   5  0
96  2  0   0   0   0  0

# Format of RF events:
# id amplitude mag_id phase_id freq phase
# ..        Hz   ....     ....   Hz   rad
[RF]
1      109.717 1 2 -1333.33 0

# Format of arbitrary gradients:
# id amplitude shape_id
# ..      Hz/m     ....
[GRAD]
3  1.26823e+06 3 
4  1.28654e+06 4 
6  1.26297e+06 5 
7  1.28403e+06 6 
8  1.25772e+06 7 
9  1.27877e+06 8 
10  1.25245e+06 9 
11   1.2735e+06 10 
12  1.28654e+06 11 
13  1.28403e+06 12 
14  1.27877e+06 13 
15   1.2735e+06 14 
16  1.26823e+06 15 
17  1.26297e+06 16 
18  1.25772e+06 17 
19  1.25245e+06 18 

# Format of trapezoid gradients:
# id amplitude rise flat fall
# ..      Hz/m   us   us   us
[TRAP]
 1       533333 100 1500 100
 2      -468864  90  820  90
 5       755162 140 2120 140

# Format of ADC events:
# id num dwell delay freq phase
# ..  ..    ns    us   Hz   rad
[ADC]
 1 2770  10000   0 0 0

# Format of delays:
# id delay (us)
[DELAYS]
1 3200
2 17310

# Sequence Shapes
[SHAPES]

shape_id 1
num_samples 1600
0
0
99
4.10555e-08
1.11617e-07
2.17713e-07
3.59505e-07
5.37148e-07
7.50789e-07
1.00057e-06
1.28661e-06
1.60904e-06
1.96797e-06
2.3635e-06
2.79573e-06
3.26475e-06
3.77063e-06
4.31345e-06
4.89327e-06
5.51013e-06
6.16408e-06
6.85515e-06
7.58338e-06
8.34877e-06
9.15134e-06
9.99107e-06
1.0868e-05
1.1782e-05
1.27332e-05
1.37214e-05
1.47466e-05
1.58088e-05
1.69079e-05
1.80439e-05
1.92166e-05
2.04259e-05
2.16717e-05
2.2954e-05
2.42726e-05
2.56274e-05
2.70182e-05
2.84449e-05
2.99073e-05
3.14053e-05
3.29386e-05
3.45071e-05
3.61106e-05
3.77488e-05
3.94217e-05
4.11288e-05
4.287e-05
4.46451e-05
4.64538e-05
4.82958e-05
5.01709e-05
5.20787e-05
5.4019e-05
5.59914e-05
5.79957e-05
6.00315e-05
6.20986e-05
6.41965e-05
6.63248e-05
6.84834e-05
7.06717e-05
7.28894e-05
7.51361e-05
7.74115e-05
7.9715e-05
8.20463e-05
8.4405e-05
8.67906e-05
8.92026e-05
9.16407e-05
9.41044e-05
9.65932e-05
9.91065e-05
0.000101644
0.000104205
0.000106789
0.000109396
0.000112025
0.000114676
0.000117347
0.000120039
0.000122751
0.000125482
0.000128232
0.000131
0.000133785
0.000136588
0.000139407
0.000142241
0.000145091
0.000147955
0.000150833
0.000153724
0.000156628
0.000159543
0.00016247
0.000165407
0.000168354
0.00017131
0.000174275
0.000177247
0.000180226
0.000183212
0.000186202
0.000189198
0.000192198
0.000195201
0.000198206
0.000201213
0.000204222
0.00020723
0.000210238
0.000213244
0.000216248
0.000219249
0.000222247
0.000225239
0.000228227
0.000231208
0.000234182
0.000237147
0.000240105
0.000243052
0.000245989
0.000248915
0.000251828
0.000254728
0.000257614
0.000260486
0.000263341
0.00026618
0.000269002
0.000271805
0.000274589
0.000277352
0.000280095
0.000282815
0.000285512
0.000288186
0.000290835
0.000293458
0.000296054
0.000298623
0.000301163
0.000303674
0.000306154
0.000308603
0.00031102
0.000313403
0.000315753
0.000318067
0.000320345
0.000322586
0.00032479
0.000326954
0.000329078
0.000331162
0.000333203
0.000335202
0.000337158
0.000339068
0.000340933
0.000342751
0.000344522
0.000346244
0.000347917
0.00034954
0.000351111
0.000352629
0.000354094
0.000355505
0.000356861
0.000358161
0.000359403
0.000360588
0.000361713
0.000362779
0.000363783
0.000364726
0.000365606
0.000366422
0.000367174
0.00036786
0.000368479
0.000369031
0.000369515
0.000369929
0.000370273
0.000370546
0.000370747
0.000370875
0.000370929
0.000370909
0.000370813
0.00037064
0.00037039
0.000370062
0.000369655
0.000369167
0.000368599
0.000367949
0.000367217
0.000366401
0.0003655
0.000364515
0.000363444
0.000362286
0.000361041
0.000359707
0.000358284
0.000356772
0.000355168
0.000353473
0.000351686
0.000349806
0.000347831
0.000345763
0.000343599
0.000341339
0.000338982
0.000336528
0.000333976
0.000331325
0.000328575
0.000325724
0.000322772
0.000319719
0.000316563
0.000313305
0.000309943
0.000306477
0.000302907
0.000299231
0.000295449
0.00029156
0.000287565
0.000283462
0.00027925
0.00027493
0.000270501
0.000265962
0.000261313
0.000256552
0.000251681
0.000246698
0.000241602
0.000236394
0.000231073
0.000225638
0.000220089
0.000214426
0.000208648
0.000202755
0.000196746
0.000190622
0.000184381
0.000178024
0.00017155
0.000164959
0.00015825
0.000151424
0.000144479
0.000137417
0.000130236
0.000122936
0.000115517
0.000107979
0.000100322
9.25454e-05
8.46492e-05
7.66332e-05
6.84973e-05
6.02414e-05
5.18653e-05
4.33691e-05
3.47526e-05
2.60158e-05
1.71587e-05
8.18109e-06
-9.16883e-07
-1.01353e-05
-1.9474e-05
-2.89331e-05
-3.85126e-05
-4.82123e-05
-5.80321e-05
-6.7972e-05
-7.8032e-05
-8.82117e-05
-9.85112e-05
-0.00010893
-0.000119469
-0.000130126
-0.000140903
-0.000151799
-0.000162813
-0.000173945
-0.000185195
-0.000196564
-0.000208049
-0.000219652
-0.000231372
-0.000243209
-0.000255161
-0.00026723
-0.000279413
-0.000291712
-0.000304126
-0.000316653
-0.000329295
-0.00034205
-0.000354917
-0.000367897
-0.000380988
-0.000394191
-0.000407505
-0.000420928
-0.000434462
-0.000448104
-0.000461855
-0.000475713
-0.000489679
-0.000503751
-0.000517929
-0.000532212
-0.000546599
-0.00056109
-0.000575684
-0.000590381
-0.000605179
-0.000620077
-0.000635076
-0.000650173
-0.000665369
-0.000680662
-0.000696052
-0.000711538
-0.000727118
-0.000742792
-0.00075856
-0.000774419
-0.000790369
-0.00080641
-0.00082254
-0.000838758
-0.000855063
-0.000871455
-0.000887931
-0.000904492
-0.000921136
-0.000937862
-0.000954668
-0.000971554
-0.000988519
-0.00100556
-0.00102268
-0.00103987
-0.00105714
-0.00107448
-0.0010919
-0.00110938
-0.00112693
-0.00114455
-0.00116224
-0.00117999
-0.0011978
-0.00121568
-0.00123362
-0.00125162
-0.00126968
-0.0012878
-0.00130597
-0.0013242
0.00134248
0.00136082
0.0013792
0.00139763
0.00141611
0.00143464
0.00145321
0.00147183
0.00149048
0.00150918
0.00152792
0.00154669
0.0015655
0.00158434
0.00160322
0.00162212
0.00164106
0.00166003
0.00167902
0.00169803
0.00171707
0.00173614
0.00175522
0.00177432
0.00179343
0.00181256
0.00183171
0.00185087
0.00187003
0.00188921
0.00190839
0.00192758
0.00194677
0.00196596
0.00198515
0.00200434
0.00202353
0.00204271
0.00206189
0.00208105
0.00210021
0.00211935
0.00213848
0.00215759
0.00217668
0.00219576
0.00221481
0.00223384
0.00225285
0.00227183
0.00229078
0.0023097
0.00232859
0.00234745
0.00236626
0.00238505
0.00240379
0.00242249
0.00244115
0.00245976
0.00247832
0.00249684
0.00251531
0.00253372
0.00255208
0.00257038
0.00258863
0.00260681
0.00262494
0.002643
0.00266099
0.00267892
0.00269678
0.00271457
0.00273228
0.00274992
0.00276748
0.00278497
0.00280237
0.0028197
0.00283693
0.00285409
0.00287115
0.00288813
0.00290501
0.0029218
0.0029385
0.00295509
0.00297159
0.00298799
0.00300429
0.00302048
0.00303657
0.00305254
0.00306841
0.00308417
0.00309981
0.00311534
0.00313075
0.00314604
0.00316122
0.00317627
0.00319119
0.00320599
0.00322066
0.00323521
0.00324962
0.0032639
0.00327804
0.00329205
0.00330592
0.00331965
0.00333324
0.00334668
0.00335998
0.00337314
0.00338614
0.003399
0.0034117
0.00342426
0.00343665
0.00344889
0.00346098
0.0034729
0.00348466
0.00349626
0.0035077
0.00351897
0.00353007
0.003541
0.00355177
0.00356236
0.00357277
0.00358302
0.00359308
0.00360297
0.00361268
0.00362221
0.00363156
0.00364072
0.0036497
0.00365849
0.00366709
0.00367551
0.00368373
0.00369177
0.00369961
0.00370725
0.0037147
0.00372195
0.00372901
0.00373587
0.00374252
0.00374897
0.00375523
0.00376127
0.00376711
0.00377275
0.00377818
0.00378339
0.0037884
0.0037932
0.00379779
0.00380216
0.00380632
0.00381027
0.003814
0.00381751
0.0038208
0.00382388
0.00382673
0.00382937
0.00383178
0.00383397
0.00383594
0.00383769
0.0038392
0.0038405
0.00384157
0.00384241
0.00384302
0.0038434
0.00384356
0.00384348
0.00384318
0.00384264
0.00384187
0.00384087
0.00383964
0.00383817
0.00383647
0.00383454
0.00383237
0.00382996
0.00382732
0.00382444
0.00382133
0.00381797
0.00381438
0.00381056
0.00380649
0.00380219
0.00379764
0.00379286
0.00378784
0.00378258
0.00377708
0.00377134
0.00376536
0.00375914
0.00375268
0.00374598
0.00373904
0.00373186
0.00372444
0.00371677
0.00370887
0.00370073
0.00369234
0.00368372
0.00367486
0.00366575
0.00365641
0.00364683
0.003637
0.00362694
0.00361664
0.0036061
0.00359532
0.00358431
0.00357305
0.00356156
0.00354984
0.00353787
0.00352567
0.00351323
0.00350056
0.00348765
0.00347451
0.00346114
0.00344753
0.00343369
0.00341961
0.00340531
0.00339077
0.003376
0.00336101
0.00334578
0.00333033
0.00331465
0.00329875
0.00328261
0.00326626
0.00324968
0.00323287
0.00321584
0.00319859
0.00318113
0.00316344
0.00314553
0.0031274
0.00310906
0.0030905
0.00307173
0.00305275
0.00303355
0.00301414
0.00299452
0.00297469
0.00295465
0.0029344
0.00291395
0.0028933
0.00287244
0.00285138
0.00283012
0.00280866
0.00278701
0.00276515
0.0027431
0.00272086
0.00269842
0.0026758
0.00265298
0.00262997
0.00260678
0.00258341
0.00255985
0.0025361
0.00251218
0.00248808
0.0024638
0.00243934
0.00241471
0.00238991
0.00236493
0.00233979
0.00231448
0.002289
0.00226336
0.00223755
0.00221159
0.00218546
0.00215918
0.00213274
0.00210615
0.00207941
0.00205252
0.00202548
0.00199829
0.00197096
0.00194348
0.00191587
0.00188811
0.00186022
0.00183219
0.00180404
0.00177575
0.00174733
0.00171878
0.00169011
0.00166132
0.0016324
0.00160337
0.00157422
0.00154495
0.00151557
0.00148609
0.00145649
0.00142679
0.00139698
0.00136707
0.00133706
0.00130695
0.00127675
0.00124646
0.00121607
0.00118559
0.00115503
0.00112438
0.00109365
0.00106284
0.00103195
0.00100099
0.000969951
0.000938842
0.000907665
0.000876421
0.000845112
0.000813741
0.000782311
0.000750823
0.00071928
0.000687684
0.000656037
0.000624342
0.000592601
0.000560817
0.000528991
0.000497127
0.000465226
0.00043329
0.000401323
0.000369326
0.000337302
0.000305253
0.000273181
0.00024109
0.00020898
0.000176856
0.000144718
0.000112569
8.04126e-05
4.82499e-05
1.60837e-05
-1.60837e-05
-4.82499e-05
-8.04126e-05
-0.000112569
-0.000144718
-0.000176856
-0.00020898
-0.00024109
-0.000273181
-0.000305253
-0.000337302
-0.000369326
-0.000401323
-0.00043329
-0.000465226
-0.000497127
-0.000528991
-0.000560817
-0.000592601
-0.000624342
-0.000656037
-0.000687684
-0.00071928
-0.000750823
-0.000782311
-0.000813741
-0.000845112
-0.000876421
-0.000907665
-0.000938842
-0.000969951
-0.00100099
-0.00103195
-0.00106284
-0.00109365
-0.00112438
-0.00115503
-0.00118559
-0.00121607
-0.00124646
-0.00127675
-0.00130695
-0.00133706
-0.00136707
-0.00139698
-0.00142679
-0.00145649
-0.00148609
-0.00151557
-0.00154495
-0.00157422
-0.00160337
-0.0016324
-0.00166132
-0.00169011
-0.00171878
-0.00174733
-0.00177575
-0.00180404
-0.00183219
-0.00186022
-0.00188811
-0.00191587
-0.00194348
-0.00197096
-0.00199829
-0.00202548
-0.00205252
-0.00207941
-0.00210615
-0.00213274
-0.00215918
-0.00218546
-0.00221159
-0.00223755
-0.00226336
-0.002289
-0.00231448
-0.00233979
-0.00236493
-0.00238991
-0.00241471
-0.00243934
-0.0024638
-0.00248808
-0.00251218
-0.0025361
-0.00255985
-0.00258341
-0.00260678
-0.00262997
-0.00265298
-0.0026758
-0.00269842
-0.00272086
-0.0027431
-0.00276515
-0.00278701
-0.00280866
-0.00283012
-0.00285138
-0.00287244
-0.0028933
-0.00291395
-0.0029344
-0.00295465
-0.00297469
-0.00299452
-0.00301414
-0.00303355
-0.00305275
-0.00307173
-0.0030905
-0.00310906
-0.0031274
-0.00314553
-0.00316344
-0.00318113
-0.00319859
-0.00321584
-0.00323287
-0.00324968
-0.00326626
-0.00328261
-0.00329875
-0.00331465
-0.00333033
-0.00334578
-0.00336101
-0.003376
-0.00339077
-0.00340531
-0.00341961
-0.00343369
-0.00344753
-0.00346114
-0.00347451
-0.00348765
-0.00350056
-0.00351323
-0.00352567
-0.00353787
-0.00354984
-0.00356156
-0.00357305
-0.00358431
-0.00359532
-0.0036061
-0.00361664
-0.00362694
-0.003637
-0.00364683
-0.00365641
-0.00366575
-0.00367486
-0.00368372
-0.00369234
-0.00370073
-0.00370887
-0.00371677
-0.00372444
-0.00373186
-0.00373904
-0.00374598
-0.00375268
-0.00375914
-0.00376536
-0.00377134
-0.00377708
-0.00378258
-0.00378784
-0.00379286
-0.00379764
-0.00380219
-0.00380649
-0.00381056
-0.00381438
-0.00381797
-0.00382133
-0.00382444
-0.00382732
-0.00382996
-0.00383237
-0.00383454
-0.00383647
-0.00383817
-0.00383964
-0.00384087
-0.00384187
-0.00384264
-0.00384318
-0.00384348
-0.00384356
-0.0038434
-0.00384302
-0.00384241
-0.00384157
-0.0038405
-0.0038392
-0.00383769
-0.00383594
-0.00383397
-0.00383178
-0.00382937
-0.00382673
-0.00382388
-0.0038208
-0.00381751
-0.003814
-0.00381027
-0.00380632
-0.00380216
-0.00379779
-0.0037932
-0.0037884
-0.00378339
-0.00377818
-0.00377275
-0.00376711
-0.00376127
-0.00375523
-0.00374897
-0.00374252
-0.00373587
-0.00372901
-0.00372195
-0.0037147
-0.00370725
-0.00369961
-0.00369177
-0.00368373
-0.00367551
-0.00366709
-0.00365849
-0.0036497
-0.00364072
-0.00363156
-0.00362221
-0.00361268
-0.00360297
-0.00359308
-0.00358302
-0.00357277
-0.00356236
-0.00355177
-0.003541
-0.00353007
-0.00351897
-0.0035077
-0.00349626
-0.00348466
-0.0034729
-0.00346098
-0.00344889
-0.00343665
-0.00342426
-0.0034117
-0.003399
-0.00338614
-0.00337314
-0.00335998
-0.00334668
-0.00333324
-0.00331965
-0.00330592
-0.00329205
-0.00327804
-0.0032639
-0.00324962
-0.00323521
-0.00322066
-0.00320599
-0.00319119
-0.00317627
-0.00316122
-0.00314604
-0.00313075
-0.00311534
-0.00309981
-0.00308417
-0.00306841
-0.00305254
-0.00303657
-0.00302048
-0.00300429
-0.00298799
-0.00297159
-0.00295509
-0.0029385
-0.0029218
-0.00290501
-0.00288813
-0.00287115
-0.00285409
-0.00283693
-0.0028197
-0.00280237
-0.00278497
-0.00276748
-0.00274992
-0.00273228
-0.00271457
-0.00269678
-0.00267892
-0.00266099
-0.002643
-0.00262494
-0.00260681
-0.00258863
-0.00257038
-0.00255208
-0.00253372
-0.00251531
-0.00249684
-0.00247832
-0.00245976
-0.00244115
-0.00242249
-0.00240379
-0.00238505
-0.00236626
-0.00234745
-0.00232859
-0.0023097
-0.00229078
-0.00227183
-0.00225285
-0.00223384
-0.00221481
-0.00219576
-0.00217668
-0.00215759
-0.00213848
-0.00211935
-0.00210021
-0.00208105
-0.00206189
-0.00204271
-0.00202353
-0.00200434
-0.00198515
-0.00196596
-0.00194677
-0.00192758
-0.00190839
-0.00188921
-0.00187003
-0.00185087
-0.00183171
-0.00181256
-0.00179343
-0.00177432
-0.00175522
-0.00173614
-0.00171707
-0.00169803
-0.00167902
-0.00166003
-0.00164106
-0.00162212
-0.00160322
-0.00158434
-0.0015655
-0.00154669
-0.00152792
-0.00150918
-0.00149048
-0.00147183
-0.00145321
-0.00143464
-0.00141611
-0.00139763
-0.0013792
-0.00136082
-0.00134248
0.0013242
0.00130597
0.0012878
0.00126968
0.00125162
0.00123362
0.00121568
0.0011978
0.00117999
0.00116224
0.00114455
0.00112693
0.00110938
0.0010919
0.00107448
0.00105714
0.00103987
0.00102268
0.00100556
0.000988519
0.000971554
0.000954668
0.000937862
0.000921136
0.000904492
0.000887931
0.000871455
0.000855063
0.000838758
0.00082254
0.00080641
0.000790369
0.000774419
0.00075856
0.000742792
0.000727118
0.000711538
0.000696052
0.000680662
0.000665369
0.000650173
0.000635076
0.000620077
0.000605179
0.000590381
0.000575684
0.00056109
0.000546599
0.000532212
0.000517929
0.000503751
0.000489679
0.000475713
0.000461855
0.000448104
0.000434462
0.000420928
0.000407505
0.000394191
0.000380988
0.000367897
0.000354917
0.00034205
0.000329295
0.000316653
0.000304126
0.000291712
0.000279413
0.00026723
0.000255161
0.000243209
0.000231372
0.000219652
0.000208049
0.000196564
0.000185195
0.000173945
0.000162813
0.000151799
0.000140903
0.000130126
0.000119469
0.00010893
9.85112e-05
8.82117e-05
7.8032e-05
6.7972e-05
5.80321e-05
4.82123e-05
3.85126e-05
2.89331e-05
1.9474e-05
1.01353e-05
9.16883e-07
-8.18109e-06
-1.71587e-05
-2.60158e-05
-3.47526e-05
-4.33691e-05
-5.18653e-05
-6.02414e-05
-6.84973e-05
-7.66332e-05
-8.46492e-05
-9.25454e-05
-0.000100322
-0.000107979
-0.000115517
-0.000122936
-0.000130236
-0.000137417
-0.000144479
-0.000151424
-0.00015825
-0.000164959
-0.00017155
-0.000178024
-0.000184381
-0.000190622
-0.000196746
-0.000202755
-0.000208648
-0.000214426
-0.000220089
-0.000225638
-0.000231073
-0.000236394
-0.000241602
-0.000246698
-0.000251681
-0.000256552
-0.000261313
-0.000265962
-0.000270501
-0.00027493
-0.00027925
-0.000283462
-0.000287565
-0.00029156
-0.000295449
-0.000299231
-0.000302907
-0.000306477
-0.000309943
-0.000313305
-0.000316563
-0.000319719
-0.000322772
-0.000325724
-0.000328575
-0.000331325
-0.000333976
-0.000336528
-0.000338982
-0.000341339
-0.000343599
-0.000345763
-0.000347831
-0.000349806
-0.000351686
-0.000353473
-0.000355168
-0.000356772
-0.000358284
-0.000359707
-0.000361041
-0.000362286
-0.000363444
-0.000364515
-0.0003655
-0.000366401
-0.000367217
-0.000367949
-0.000368599
-0.000369167
-0.000369655
-0.000370062
-0.00037039
-0.00037064
-0.000370813
-0.000370909
-0.000370929
-0.000370875
-0.000370747
-0.000370546
-0.000370273
-0.000369929
-0.000369515
-0.000369031
-0.000368479
-0.00036786
-0.000367174
-0.000366422
-0.000365606
-0.000364726
-0.000363783
-0.000362779
-0.000361713
-0.000360588
-0.000359403
-0.000358161
-0.000356861
-0.000355505
-0.000354094
-0.000352629
-0.000351111
-0.00034954
-0.000347917
-0.000346244
-0.000344522
-0.000342751
-0.000340933
-0.000339068
-0.000337158
-0.000335202
-0.000333203
-0.000331162
-0.000329078
-0.000326954
-0.00032479
-0.000322586
-0.000320345
-0.000318067
-0.000315753
-0.000313403
-0.00031102
-0.000308603
-0.000306154
-0.000303674
-0.000301163
-0.000298623
-0.000296054
-0.000293458
-0.000290835
-0.000288186
-0.000285512
-0.000282815
-0.000280095
-0.000277352
-0.000274589
-0.000271805
-0.000269002
-0.00026618
-0.000263341
-0.000260486
-0.000257614
-0.000254728
-0.000251828
-0.000248915
-0.000245989
-0.000243052
-0.000240105
-0.000237147
-0.000234182
-0.000231208
-0.000228227
-0.000225239
-0.000222247
-0.000219249
-0.000216248
-0.000213244
-0.000210238
-0.00020723
-0.000204222
-0.000201213
-0.000198206
-0.000195201
-0.000192198
-0.000189198
-0.000186202
-0.000183212
-0.000180226
-0.000177247
-0.000174275
-0.00017131
-0.000168354
-0.000165407
-0.00016247
-0.000159543
-0.000156628
-0.000153724
-0.000150833
-0.000147955
-0.000145091
-0.000142241
-0.000139407
-0.000136588
-0.000133785
-0.000131
-0.000128232
-0.000125482
-0.000122751
-0.000120039
-0.000117347
-0.000114676
-0.000112025
-0.000109396
-0.000106789
-0.000104205
-0.000101644
-9.91065e-05
-9.65932e-05
-9.41044e-05
-9.16407e-05
-8.92026e-05
-8.67906e-05
-8.4405e-05
-8.20463e-05
-7.9715e-05
-7.74115e-05
-7.51361e-05
-7.28894e-05
-7.06717e-05
-6.84834e-05
-6.63248e-05
-6.41965e-05
-6.20986e-05
-6.00315e-05
-5.79957e-05
-5.59914e-05
-5.4019e-05
-5.20787e-05
-5.01709e-05
-4.82958e-05
-4.64538e-05
-4.46451e-05
-4.287e-05
-4.11288e-05
-3.94217e-05
-3.77488e-05
-3.61106e-05
-3.45071e-05
-3.29386e-05
-3.14053e-05
-2.99073e-05
-2.84449e-05
-2.70182e-05
-2.56274e-05
-2.42726e-05
-2.2954e-05
-2.16717e-05
-2.04259e-05
-1.92166e-05
-1.80439e-05
-1.69079e-05
-1.58088e-05
-1.47466e-05
-1.37214e-05
-1.27332e-05
-1.1782e-05
-1.0868e-05
-9.99107e-06
-9.15134e-06
-8.34877e-06
-7.58338e-06
-6.85515e-06
-6.16408e-06
-5.51013e-06
-4.89327e-06
-4.31345e-06
-3.77063e-06
-3.26475e-06
-2.79573e-06
-2.3635e-06
-1.96797e-06
-1.60904e-06
-1.28661e-06
-1.00057e-06
-7.50789e-07
-5.37148e-07
-3.59505e-07
-2.17713e-07
-1.11617e-07
-4.10555e-08
-5.85639e-09

shape_id 2
num_samples 1600
0
0
98
0.5
0
0
371
-0.5
0
0
748
0.5
0
0
371
-0.5

shape_id 3
num_samples 2770
0
-0.000123957
-0.000515507
0.000923362
0.00209269
-0.00699608
0.00997168
-0.00798694
-0.00240164
0.016264
-0.0147861
-0.008751
0.0198651
0.0067554
-0.0202799
-0.0122625
0.0155708
0.0209261
-0.00173976
-0.0222396
-0.0172631
0.00597377
0.0231001
0.0187269
-0.00179092
-0.0205906
-0.0233717
-0.00921869
0.0110363
0.0238401
0.0217761
0.00698819
-0.011479
-0.0235583
-0.0234708
-0.0119578
0.00496305
0.0194168
0.0253214
0.020687
0.00790045
-0.00772944
-0.020292
-0.025462
-0.0218137
-0.0109715
0.00325065
0.0162772
0.0242374
0.0250274
0.0187289
0.00736842
-0.00581665
-0.0173372
-0.0243591
-0.0253389
-0.0202756
-0.0105719
0.00140794
0.0129447
0.0215799
0.0256106
0.0243757
0.0183028
0.00873702
-0.00238797
-0.0129565
-0.02107
-0.0253688
-0.0252282
-0.0208108
-0.0129821
-0.00311865
0.00714827
0.0162056
0.0227049
0.0257469
0.0249836
0.0206324
0.0134076
0.00438927
-0.00514785
-0.0139172
-0.0207903
-0.0249329
-0.0258924
-0.0236315
-0.0185079
-0.0112077
-0.00264518
0.00615643
0.0141885
0.0205696
0.0246354
0.0259997
0.0245798
0.0205892
0.0144995
0.00697831
-0.00118814
-0.00917902
-0.0162208
-0.0216595
-0.0250159
-0.0260223
-0.0246361
-0.0210329
-0.01558
-0.00879469
-0.00129222
0.00627158
0.0132578
0.0190967
0.023332
0.0256519
0.0259081
0.0241202
0.0204663
0.0152625
0.00893265
0.00197197
-0.00509288
-0.0117438
-0.0175081
-0.021991
-0.0248995
-0.0260591
-0.0254209
-0.0230596
-0.0191635
-0.0140177
-0.00798119
-0.00146047
0.00511816
0.0113366
0.0168111
0.0212143
0.0242938
0.0258844
0.0259145
0.0244073
0.0214758
0.0173125
0.0121759
0.00637342
0.000241668
-0.0058728
-0.0116332
-0.0167308
-0.0209
-0.023932
-0.0256832
-0.0260806
-0.0251235
-0.0228807
-0.0194849
-0.0151237
-0.0100286
-0.00446168
0.00129783
0.00696798
0.0122776
0.0169792
0.0208592
0.0237478
0.0255246
0.0261232
0.0255323
0.0237943
0.021002
0.0172928
0.0128415
0.00785127
0.00254405
-0.00284933
-0.00809936
-0.0129874
-0.0173147
-0.0209096
-0.0236341
-0.0253886
-0.0261144
-0.0257953
-0.0244567
-0.0221636
-0.0190169
-0.0151484
-0.010715
-0.00589192
-0.000865614
0.00417351
0.0090383
0.0135517
0.017553
0.0209029
0.0234887
0.0252267
0.026065
0.0259844
0.0249981
0.0231503
0.0205143
0.0171886
0.0132934
0.00896585
0.00435505
-0.00038331
-0.00509212
-0.00961806
-0.0138165
-0.017556
-0.0207219
-0.0232201
-0.0249789
-0.025951
-0.0261147
-0.0254731
-0.0240544
-0.0219096
-0.0191109
-0.0157488
-0.0119294
-0.00776996
-0.00339626
0.00106201
0.0054748
0.00971555
0.0136647
0.0172129
0.0202641
0.0227375
0.0245698
0.0257167
0.0261531
0.025874
0.0248937
0.0232455
0.0209798
0.0181627
0.014874
0.0112045
0.00725376
0.00312683
-0.00106814
-0.00522294
-0.00923206
-0.0129953
-0.0164201
-0.0194239
-0.0219358
-0.0238981
-0.0252675
-0.0260158
-0.0261305
-0.0256143
-0.0244852
-0.0227755
-0.0205309
-0.0178089
-0.0146774
-0.0112129
-0.00749869
-0.00362232
0.000326014
0.00425579
0.00807819
0.0117081
0.0150658
0.0180789
0.0206836
0.022826
0.0244629
0.0255629
0.0261067
0.0260871
0.0255091
0.0243896
0.0227567
0.020649
0.0181144
0.0152091
0.0119964
0.00854496
0.00492742
0.00121889
-0.00250466
-0.00616797
-0.00969796
-0.0130252
-0.0160851
-0.0188193
-0.0211766
-0.0231138
-0.0245963
-0.025599
-0.0261061
-0.0261119
-0.0256199
-0.0246432
-0.0232039
-0.0213326
-0.0190674
-0.0164533
-0.0135413
-0.0103873
-0.00705077
-0.00359388
-8.02131e-05
0.00342639
0.00686299
0.0101687
0.0132856
0.0161599
0.0187428
0.020991
0.0228677
0.0243429
0.025394
0.026006
0.0261714
0.0258905
0.0251714
0.0240291
0.0224858
0.02057
0.0183164
0.0157645
0.0129585
0.00994613
0.00677813
0.00350705
0.000186579
-0.00312943
-0.0063878
-0.00953686
-0.0125273
-0.0153127
-0.0178507
-0.0201031
-0.0220365
-0.023623
-0.0248404
-0.0256723
-0.0261084
-0.0261447
-0.0257832
-0.0250321
-0.0239051
-0.0224216
-0.0206061
-0.0184878
-0.0161
-0.0134797
-0.0106668
-0.00770378
-0.00463476
-0.00150494
0.00164007
0.00475493
0.00779518
0.0107179
0.0134823
0.0160503
0.0183868
0.0204605
0.0222441
0.0237146
0.0248533
0.0256468
0.0260861
0.0261674
0.0258917
0.025265
0.0242979
0.0230054
0.0214069
0.0195255
0.017388
0.0150242
0.0124667
0.00975025
0.00691144
0.00398801
0.00101846
-0.00195849
-0.0049044
-0.00778162
-0.0105537
-0.0131859
-0.0156457
-0.0179029
-0.0199303
-0.0217036
-0.0232023
-0.0244091
-0.0253108
-0.0258981
-0.0261653
-0.0261111
-0.0257379
-0.0250521
-0.0240637
-0.0227865
-0.0212373
-0.0194363
-0.0174063
-0.015173
-0.0127637
-0.0102081
-0.007537
-0.00478234
-0.00197681
0.000846641
0.00365516
0.00641635
0.00909866
0.0116717
0.0141067
0.0163766
0.0184566
0.0203241
0.0219591
0.0233447
0.0244665
0.0253136
0.0258778
0.0261546
0.0261422
0.0258425
0.0252601
0.0244029
0.0232818
0.0219101
0.0203041
0.0184823
0.0164653
0.0142757
0.0119377
0.00947695
0.00692009
0.0042946
0.00162843
-0.00105029
-0.00371351
-0.00633361
-0.00888363
-0.0113376
-0.0136706
-0.0158595
-0.0178824
-0.0197197
-0.0213535
-0.0227683
-0.0239509
-0.0248907
-0.0255793
-0.026011
-0.026183
-0.0260947
-0.0257483
-0.0251485
-0.0243024
-0.0232195
-0.0219115
-0.0203923
-0.0186776
-0.016785
-0.0147336
-0.0125438
-0.0102374
-0.00783687
-0.00536555
-0.00284724
-0.000305979
0.00223415
0.00474928
0.00721595
0.00961135
0.0119135
0.0141015
0.0161556
0.0180575
0.0197904
0.0213392
0.0226906
0.0238333
0.0247577
0.0254566
0.0259247
0.0261588
0.0261579
0.0259231
0.0254575
0.0247664
0.0238569
0.0227381
0.0214206
0.0199171
0.0182415
0.0164091
0.0144368
0.0123421
0.0101439
0.00786141
0.00551475
0.00312429
0.000710676
-0.00170543
-0.00410349
-0.00646325
-0.00876496
-0.0109895
-0.0131185
-0.0151346
-0.0170214
-0.0187638
-0.0203479
-0.0217614
-0.0229933
-0.0240343
-0.0248766
-0.0255142
-0.0259429
-0.02616
-0.0261646
-0.0259577
-0.0255418
-0.0249211
-0.0241015
-0.0230905
-0.0218968
-0.0205308
-0.0190039
-0.017329
-0.0155199
-0.0135913
-0.0115589
-0.00943905
-0.00724856
-0.00500477
-0.00272532
-0.000427953
0.00186953
0.00414948
0.00639448
0.00858752
0.0107121
0.0127523
0.0146931
0.0165202
0.0182202
0.0197809
0.0211912
0.0224411
0.023522
0.0244265
0.0251485
0.0256836
0.0260285
0.0261815
0.0261421
0.0259115
0.0254921
0.0248877
0.0241034
0.0231457
0.0220221
0.0207413
0.0193133
0.0177489
0.0160596
0.0142582
0.0123578
0.0103722
0.00831595
0.00620372
0.0040506
0.00187186
-0.000317142
-0.0025011
-0.00466483
-0.00679339
-0.00887216
-0.010887
-0.0128242
-0.0146709
-0.0164146
-0.0180439
-0.0195481
-0.0209175
-0.0221432
-0.0232175
-0.0241337
-0.0248864
-0.0254709
-0.0258842
-0.0261239
-0.0261893
-0.0260805
-0.0257989
-0.025347
-0.0247284
-0.0239479
-0.0230111
-0.0219248
-0.0206966
-0.0193351
-0.0178496
-0.0162502
-0.0145476
-0.0127533
-0.0108791
-0.00893731
-0.00694069
-0.00490216
-0.00283488
-0.000752092
0.00133294
0.003407
0.00545706
0.00747027
0.00943414
0.0113365
0.0131658
0.0149107
0.0165608
0.0181062
0.0195376
0.0208466
0.0220257
0.023068
0.0239675
0.0247194
0.0253196
0.0257649
0.0260532
0.0261833
0.0261549
0.0259688
0.0256267
0.0251312
0.0244858
0.0236948
0.0227635
0.021698
0.0205049
0.0191919
0.017767
0.0162392
0.0146176
0.0129122
0.0111332
0.00929128
0.00739736
0.00546262
0.00349843
0.00151625
-0.000472416
-0.0024561
-0.00442341
-0.00636314
-0.00826428
-0.0101161
-0.0119083
-0.0136308
-0.0152741
-0.0168292
-0.0182877
-0.0196416
-0.0208836
-0.0220073
-0.0230066
-0.0238765
-0.0246126
-0.0252112
-0.0256694
-0.0259852
-0.0261573
-0.0261852
-0.0260694
-0.0258108
-0.0254113
-0.0248737
-0.0242012
-0.0233981
-0.022469
-0.0214194
-0.0202554
-0.0189836
-0.0176112
-0.0161459
-0.0145958
-0.0129695
-0.0112758
-0.00952411
-0.00772377
-0.00588451
-0.00401615
-0.00212864
-0.000231965
0.00166389
0.00354902
0.00541359
0.00724795
0.00904266
0.0107885
0.0124767
0.0140985
0.015646
0.0171113
0.0184871
0.0197668
0.0209441
0.0220132
0.0229691
0.0238074
0.024524
0.0251157
0.0255801
0.025915
0.0261193
0.0261923
0.0261341
0.0259453
0.0256274
0.0251822
0.0246125
0.0239213
0.0231126
0.0221906
0.0211603
0.020027
0.0187967
0.0174756
0.0160705
0.0145885
0.013037
0.0114238
0.00975692
0.00804453
0.00629506
0.00451704
0.0027191
0.000909944
-0.000901747
-0.00270731
-0.00449814
-0.00626578
-0.0080019
-0.00969835
-0.0113473
-0.0129409
-0.0144721
-0.0159337
-0.0173191
-0.018622
-0.0198366
-0.0209575
-0.0219797
-0.0228989
-0.0237109
-0.0244125
-0.0250007
-0.025473
-0.0258277
-0.0260635
-0.0261797
-0.0261761
-0.026053
-0.0258113
-0.0254526
-0.0249787
-0.0243922
-0.0236961
-0.0228937
-0.021989
-0.0209864
-0.0198907
-0.018707
-0.0174409
-0.0160982
-0.0146852
-0.0132084
-0.0116744
-0.0100902
-0.00846295
-0.00679997
-0.00510867
-0.00339654
-0.00167116
5.98934e-05
0.00178904
0.00350876
0.00521159
0.00689019
0.00853735
0.010146
0.0117094
0.0132209
0.0146741
0.016063
0.0173817
0.0186249
0.0197874
0.0208646
0.021852
0.0227458
0.0235424
0.0242387
0.0248321
0.0253203
0.0257016
