# Pulseq sequence file
# Created by MATLAB mr toolbox

# Format of blocks:
#  #  D RF  GX  GY  GZ ADC
[BLOCKS]
 1  0  1   0   0   1  0
 2  0  0   0   0   2  0
 3  1  0   0   0   0  0
 4  0  0   3   4   0  1
 5  0  0   0   0   5  0
 6  2  0   0   0   0  0
 7  0  1   0   0   1  0
 8  0  0   0   0   2  0
 9  1  0   0   0   0  0
10  0  0   6   7   0  1
11  0  0   0   0   5  0
12  2  0   0   0   0  0
13  0  1   0   0   1  0
14  0  0   0   0   2  0
15  1  0   0   0   0  0
16  0  0   8   9   0  1
17  0  0   0   0   5  0
18  2  0   0   0   0  0
19  0  1   0   0   1  0
20  0  0   0   0   2  0
21  1  0   0   0   0  0
22  0  0  10  11   0  1
23  0  0   0   0   5  0
24  2  0   0   0   0  0
25  0  1   0   0   1  0
26  0  0   0   0   2  0
27  1  0   0   0   0  0
28  0  0  12   3   0  1
29  0  0   0   0   5  0
30  2  0   0   0   0  0
31  0  1   0   0   1  0
32  0  0   0   0   2  0
33  1  0   0   0   0  0
34  0  0  13   6   0  1
35  0  0   0   0   5  0
36  2  0   0   0   0  0
37  0  1   0   0   1  0
38  0  0   0   0   2  0
39  1  0   0   0   0  0
40  0  0  14   8   0  1
41  0  0   0   0   5  0
42  2  0   0   0   0  0
43  0  1   0   0   1  0
44  0  0   0   0   2  0
45  1  0   0   0   0  0
46  0  0  15  10   0  1
47  0  0   0   0   5  0
48  2  0   0   0   0  0
49  0  1   0   0   1  0
50  0  0   0   0   2  0
51  1  0   0   0   0  0
52  0  0  16  12   0  1
53  0  0   0   0   5  0
54  2  0   0   0   0  0
55  0  1   0   0   1  0
56  0  0   0   0   2  0
57  1  0   0   0   0  0
58  0  0  17  13   0  1
59  0  0   0   0   5  0
60  2  0   0   0   0  0
61  0  1   0   0   1  0
62  0  0   0   0   2  0
63  1  0   0   0   0  0
64  0  0  18  14   0  1
65  0  0   0   0   5  0
66  2  0   0   0   0  0
67  0  1   0   0   1  0
68  0  0   0   0   2  0
69  1  0   0   0   0  0
70  0  0  19  15   0  1
71  0  0   0   0   5  0
72  2  0   0   0   0  0
73  0  1   0   0   1  0
74  0  0   0   0   2  0
75  1  0   0   0   0  0
76  0  0   4  16   0  1
77  0  0   0   0   5  0
78  2  0   0   0   0  0
79  0  1   0   0   1  0
80  0  0   0   0   2  0
81  1  0   0   0   0  0
82  0  0   7  17   0  1
83  0  0   0   0   5  0
84  2  0   0   0   0  0
85  0  1   0   0   1  0
86  0  0   0   0   2  0
87  1  0   0   0   0  0
88  0  0   9  18   0  1
89  0  0   0   0   5  0
90  2  0   0   0   0  0
91  0  1   0   0   1  0
92  0  0   0   0   2  0
93  1  0   0   0   0  0
94  0  0  11  19   0  1
95  0  0   0   0   5  0
96  2  0   0   0   0  0

# Format of RF events:
# id amplitude mag_id phase_id freq phase
# ..        Hz   ....     ....   Hz   rad
[RF]
1      109.717 1 2 -1333.33 0

# Format of arbitrary gradients:
# id amplitude shape_id
# ..      Hz/m     ....
[GRAD]
3  1.26452e+06 3 
4  1.28535e+06 4 
6  1.25934e+06 5 
7  1.28014e+06 6 
8  1.25416e+06 7 
9  1.27492e+06 8 
10   1.2742e+06 9 
11  1.26971e+06 10 
12  1.28535e+06 11 
13  1.28014e+06 12 
14  1.27492e+06 13 
15  1.26971e+06 14 
16  1.26452e+06 15 
17  1.25934e+06 16 
18  1.25416e+06 17 
19   1.2742e+06 18 

# Format of trapezoid gradients:
# id amplitude rise flat fall
# ..      Hz/m   us   us   us
[TRAP]
 1       533333 100 1500 100
 2      -468864  90  820  90
 5       755162 140 2120 140

# Format of ADC events:
# id num dwell delay freq phase
# ..  ..    ns    us   Hz   rad
[ADC]
 1 1888  10000   0 0 0

# Format of delays:
# id delay (us)
[DELAYS]
1 3200
2 26130

# Sequence Shapes
[SHAPES]

shape_id 1
num_samples 1600
0
0
99
4.10555e-08
1.11617e-07
2.17713e-07
3.59505e-07
5.37148e-07
7.50789e-07
1.00057e-06
1.28661e-06
1.60904e-06
1.96797e-06
2.3635e-06
2.79573e-06
3.26475e-06
3.77063e-06
4.31345e-06
4.89327e-06
5.51013e-06
6.16408e-06
6.85515e-06
7.58338e-06
8.34877e-06
9.15134e-06
9.99107e-06
1.0868e-05
1.1782e-05
1.27332e-05
1.37214e-05
1.47466e-05
1.58088e-05
1.69079e-05
1.80439e-05
1.92166e-05
2.04259e-05
2.16717e-05
2.2954e-05
2.42726e-05
2.56274e-05
2.70182e-05
2.84449e-05
2.99073e-05
3.14053e-05
3.29386e-05
3.45071e-05
3.61106e-05
3.77488e-05
3.94217e-05
4.11288e-05
4.287e-05
4.46451e-05
4.64538e-05
4.82958e-05
5.01709e-05
5.20787e-05
5.4019e-05
5.59914e-05
5.79957e-05
6.00315e-05
6.20986e-05
6.41965e-05
6.63248e-05
6.84834e-05
7.06717e-05
7.28894e-05
7.51361e-05
7.74115e-05
7.9715e-05
8.20463e-05
8.4405e-05
8.67906e-05
8.92026e-05
9.16407e-05
9.41044e-05
9.65932e-05
9.91065e-05
0.000101644
0.000104205
0.000106789
0.000109396
0.000112025
0.000114676
0.000117347
0.000120039
0.000122751
0.000125482
0.000128232
0.000131
0.000133785
0.000136588
0.000139407
0.000142241
0.000145091
0.000147955
0.000150833
0.000153724
0.000156628
0.000159543
0.00016247
0.000165407
0.000168354
0.00017131
0.000174275
0.000177247
0.000180226
0.000183212
0.000186202
0.000189198
0.000192198
0.000195201
0.000198206
0.000201213
0.000204222
0.00020723
0.000210238
0.000213244
0.000216248
0.000219249
0.000222247
0.000225239
0.000228227
0.000231208
0.000234182
0.000237147
0.000240105
0.000243052
0.000245989
0.000248915
0.000251828
0.000254728
0.000257614
0.000260486
0.000263341
0.00026618
0.000269002
0.000271805
0.000274589
0.000277352
0.000280095
0.000282815
0.000285512
0.000288186
0.000290835
0.000293458
0.000296054
0.000298623
0.000301163
0.000303674
0.000306154
0.000308603
0.00031102
0.000313403
0.000315753
0.000318067
0.000320345
0.000322586
0.00032479
0.000326954
0.000329078
0.000331162
0.000333203
0.000335202
0.000337158
0.000339068
0.000340933
0.000342751
0.000344522
0.000346244
0.000347917
0.00034954
0.000351111
0.000352629
0.000354094
0.000355505
0.000356861
0.000358161
0.000359403
0.000360588
0.000361713
0.000362779
0.000363783
0.000364726
0.000365606
0.000366422
0.000367174
0.00036786
0.000368479
0.000369031
0.000369515
0.000369929
0.000370273
0.000370546
0.000370747
0.000370875
0.000370929
0.000370909
0.000370813
0.00037064
0.00037039
0.000370062
0.000369655
0.000369167
0.000368599
0.000367949
0.000367217
0.000366401
0.0003655
0.000364515
0.000363444
0.000362286
0.000361041
0.000359707
0.000358284
0.000356772
0.000355168
0.000353473
0.000351686
0.000349806
0.000347831
0.000345763
0.000343599
0.000341339
0.000338982
0.000336528
0.000333976
0.000331325
0.000328575
0.000325724
0.000322772
0.000319719
0.000316563
0.000313305
0.000309943
0.000306477
0.000302907
0.000299231
0.000295449
0.00029156
0.000287565
0.000283462
0.00027925
0.00027493
0.000270501
0.000265962
0.000261313
0.000256552
0.000251681
0.000246698
0.000241602
0.000236394
0.000231073
0.000225638
0.000220089
0.000214426
0.000208648
0.000202755
0.000196746
0.000190622
0.000184381
0.000178024
0.00017155
0.000164959
0.00015825
0.000151424
0.000144479
0.000137417
0.000130236
0.000122936
0.000115517
0.000107979
0.000100322
9.25454e-05
8.46492e-05
7.66332e-05
6.84973e-05
6.02414e-05
5.18653e-05
4.33691e-05
3.47526e-05
2.60158e-05
1.71587e-05
8.18109e-06
-9.16883e-07
-1.01353e-05
-1.9474e-05
-2.89331e-05
-3.85126e-05
-4.82123e-05
-5.80321e-05
-6.7972e-05
-7.8032e-05
-8.82117e-05
-9.85112e-05
-0.00010893
-0.000119469
-0.000130126
-0.000140903
-0.000151799
-0.000162813
-0.000173945
-0.000185195
-0.000196564
-0.000208049
-0.000219652
-0.000231372
-0.000243209
-0.000255161
-0.00026723
-0.000279413
-0.000291712
-0.000304126
-0.000316653
-0.000329295
-0.00034205
-0.000354917
-0.000367897
-0.000380988
-0.000394191
-0.000407505
-0.000420928
-0.000434462
-0.000448104
-0.000461855
-0.000475713
-0.000489679
-0.000503751
-0.000517929
-0.000532212
-0.000546599
-0.00056109
-0.000575684
-0.000590381
-0.000605179
-0.000620077
-0.000635076
-0.000650173
-0.000665369
-0.000680662
-0.000696052
-0.000711538
-0.000727118
-0.000742792
-0.00075856
-0.000774419
-0.000790369
-0.00080641
-0.00082254
-0.000838758
-0.000855063
-0.000871455
-0.000887931
-0.000904492
-0.000921136
-0.000937862
-0.000954668
-0.000971554
-0.000988519
-0.00100556
-0.00102268
-0.00103987
-0.00105714
-0.00107448
-0.0010919
-0.00110938
-0.00112693
-0.00114455
-0.00116224
-0.00117999
-0.0011978
-0.00121568
-0.00123362
-0.00125162
-0.00126968
-0.0012878
-0.00130597
-0.0013242
0.00134248
0.00136082
0.0013792
0.00139763
0.00141611
0.00143464
0.00145321
0.00147183
0.00149048
0.00150918
0.00152792
0.00154669
0.0015655
0.00158434
0.00160322
0.00162212
0.00164106
0.00166003
0.00167902
0.00169803
0.00171707
0.00173614
0.00175522
0.00177432
0.00179343
0.00181256
0.00183171
0.00185087
0.00187003
0.00188921
0.00190839
0.00192758
0.00194677
0.00196596
0.00198515
0.00200434
0.00202353
0.00204271
0.00206189
0.00208105
0.00210021
0.00211935
0.00213848
0.00215759
0.00217668
0.00219576
0.00221481
0.00223384
0.00225285
0.00227183
0.00229078
0.0023097
0.00232859
0.00234745
0.00236626
0.00238505
0.00240379
0.00242249
0.00244115
0.00245976
0.00247832
0.00249684
0.00251531
0.00253372
0.00255208
0.00257038
0.00258863
0.00260681
0.00262494
0.002643
0.00266099
0.00267892
0.00269678
0.00271457
0.00273228
0.00274992
0.00276748
0.00278497
0.00280237
0.0028197
0.00283693
0.00285409
0.00287115
0.00288813
0.00290501
0.0029218
0.0029385
0.00295509
0.00297159
0.00298799
0.00300429
0.00302048
0.00303657
0.00305254
0.00306841
0.00308417
0.00309981
0.00311534
0.00313075
0.00314604
0.00316122
0.00317627
0.00319119
0.00320599
0.00322066
0.00323521
0.00324962
0.0032639
0.00327804
0.00329205
0.00330592
0.00331965
0.00333324
0.00334668
0.00335998
0.00337314
0.00338614
0.003399
0.0034117
0.00342426
0.00343665
0.00344889
0.00346098
0.0034729
0.00348466
0.00349626
0.0035077
0.00351897
0.00353007
0.003541
0.00355177
0.00356236
0.00357277
0.00358302
0.00359308
0.00360297
0.00361268
0.00362221
0.00363156
0.00364072
0.0036497
0.00365849
0.00366709
0.00367551
0.00368373
0.00369177
0.00369961
0.00370725
0.0037147
0.00372195
0.00372901
0.00373587
0.00374252
0.00374897
0.00375523
0.00376127
0.00376711
0.00377275
0.00377818
0.00378339
0.0037884
0.0037932
0.00379779
0.00380216
0.00380632
0.00381027
0.003814
0.00381751
0.0038208
0.00382388
0.00382673
0.00382937
0.00383178
0.00383397
0.00383594
0.00383769
0.0038392
0.0038405
0.00384157
0.00384241
0.00384302
0.0038434
0.00384356
0.00384348
0.00384318
0.00384264
0.00384187
0.00384087
0.00383964
0.00383817
0.00383647
0.00383454
0.00383237
0.00382996
0.00382732
0.00382444
0.00382133
0.00381797
0.00381438
0.00381056
0.00380649
0.00380219
0.00379764
0.00379286
0.00378784
0.00378258
0.00377708
0.00377134
0.00376536
0.00375914
0.00375268
0.00374598
0.00373904
0.00373186
0.00372444
0.00371677
0.00370887
0.00370073
0.00369234
0.00368372
0.00367486
0.00366575
0.00365641
0.00364683
0.003637
0.00362694
0.00361664
0.0036061
0.00359532
0.00358431
0.00357305
0.00356156
0.00354984
0.00353787
0.00352567
0.00351323
0.00350056
0.00348765
0.00347451
0.00346114
0.00344753
0.00343369
0.00341961
0.00340531
0.00339077
0.003376
0.00336101
0.00334578
0.00333033
0.00331465
0.00329875
0.00328261
0.00326626
0.00324968
0.00323287
0.00321584
0.00319859
0.00318113
0.00316344
0.00314553
0.0031274
0.00310906
0.0030905
0.00307173
0.00305275
0.00303355
0.00301414
0.00299452
0.00297469
0.00295465
0.0029344
0.00291395
0.0028933
0.00287244
0.00285138
0.00283012
0.00280866
0.00278701
0.00276515
0.0027431
0.00272086
0.00269842
0.0026758
0.00265298
0.00262997
0.00260678
0.00258341
0.00255985
0.0025361
0.00251218
0.00248808
0.0024638
0.00243934
0.00241471
0.00238991
0.00236493
0.00233979
0.00231448
0.002289
0.00226336
0.00223755
0.00221159
0.00218546
0.00215918
0.00213274
0.00210615
0.00207941
0.00205252
0.00202548
0.00199829
0.00197096
0.00194348
0.00191587
0.00188811
0.00186022
0.00183219
0.00180404
0.00177575
0.00174733
0.00171878
0.00169011
0.00166132
0.0016324
0.00160337
0.00157422
0.00154495
0.00151557
0.00148609
0.00145649
0.00142679
0.00139698
0.00136707
0.00133706
0.00130695
0.00127675
0.00124646
0.00121607
0.00118559
0.00115503
0.00112438
0.00109365
0.00106284
0.00103195
0.00100099
0.000969951
0.000938842
0.000907665
0.000876421
0.000845112
0.000813741
0.000782311
0.000750823
0.00071928
0.000687684
0.000656037
0.000624342
0.000592601
0.000560817
0.000528991
0.000497127
0.000465226
0.00043329
0.000401323
0.000369326
0.000337302
0.000305253
0.000273181
0.00024109
0.00020898
0.000176856
0.000144718
0.000112569
8.04126e-05
4.82499e-05
1.60837e-05
-1.60837e-05
-4.82499e-05
-8.04126e-05
-0.000112569
-0.000144718
-0.000176856
-0.00020898
-0.00024109
-0.000273181
-0.000305253
-0.000337302
-0.000369326
-0.000401323
-0.00043329
-0.000465226
-0.000497127
-0.000528991
-0.000560817
-0.000592601
-0.000624342
-0.000656037
-0.000687684
-0.00071928
-0.000750823
-0.000782311
-0.000813741
-0.000845112
-0.000876421
-0.000907665
-0.000938842
-0.000969951
-0.00100099
-0.00103195
-0.00106284
-0.00109365
-0.00112438
-0.00115503
-0.00118559
-0.00121607
-0.00124646
-0.00127675
-0.00130695
-0.00133706
-0.00136707
-0.00139698
-0.00142679
-0.00145649
-0.00148609
-0.00151557
-0.00154495
-0.00157422
-0.00160337
-0.0016324
-0.00166132
-0.00169011
-0.00171878
-0.00174733
-0.00177575
-0.00180404
-0.00183219
-0.00186022
-0.00188811
-0.00191587
-0.00194348
-0.00197096
-0.00199829
-0.00202548
-0.00205252
-0.00207941
-0.00210615
-0.00213274
-0.00215918
-0.00218546
-0.00221159
-0.00223755
-0.00226336
-0.002289
-0.00231448
-0.00233979
-0.00236493
-0.00238991
-0.00241471
-0.00243934
-0.0024638
-0.00248808
-0.00251218
-0.0025361
-0.00255985
-0.00258341
-0.00260678
-0.00262997
-0.00265298
-0.0026758
-0.00269842
-0.00272086
-0.0027431
-0.00276515
-0.00278701
-0.00280866
-0.00283012
-0.00285138
-0.00287244
-0.0028933
-0.00291395
-0.0029344
-0.00295465
-0.00297469
-0.00299452
-0.00301414
-0.00303355
-0.00305275
-0.00307173
-0.0030905
-0.00310906
-0.0031274
-0.00314553
-0.00316344
-0.00318113
-0.00319859
-0.00321584
-0.00323287
-0.00324968
-0.00326626
-0.00328261
-0.00329875
-0.00331465
-0.00333033
-0.00334578
-0.00336101
-0.003376
-0.00339077
-0.00340531
-0.00341961
-0.00343369
-0.00344753
-0.00346114
-0.00347451
-0.00348765
-0.00350056
-0.00351323
-0.00352567
-0.00353787
-0.00354984
-0.00356156
-0.00357305
-0.00358431
-0.00359532
-0.0036061
-0.00361664
-0.00362694
-0.003637
-0.00364683
-0.00365641
-0.00366575
-0.00367486
-0.00368372
-0.00369234
-0.00370073
-0.00370887
-0.00371677
-0.00372444
-0.00373186
-0.00373904
-0.00374598
-0.00375268
-0.00375914
-0.00376536
-0.00377134
-0.00377708
-0.00378258
-0.00378784
-0.00379286
-0.00379764
-0.00380219
-0.00380649
-0.00381056
-0.00381438
-0.00381797
-0.00382133
-0.00382444
-0.00382732
-0.00382996
-0.00383237
-0.00383454
-0.00383647
-0.00383817
-0.00383964
-0.00384087
-0.00384187
-0.00384264
-0.00384318
-0.00384348
-0.00384356
-0.0038434
-0.00384302
-0.00384241
-0.00384157
-0.0038405
-0.0038392
-0.00383769
-0.00383594
-0.00383397
-0.00383178
-0.00382937
-0.00382673
-0.00382388
-0.0038208
-0.00381751
-0.003814
-0.00381027
-0.00380632
-0.00380216
-0.00379779
-0.0037932
-0.0037884
-0.00378339
-0.00377818
-0.00377275
-0.00376711
-0.00376127
-0.00375523
-0.00374897
-0.00374252
-0.00373587
-0.00372901
-0.00372195
-0.0037147
-0.00370725
-0.00369961
-0.00369177
-0.00368373
-0.00367551
-0.00366709
-0.00365849
-0.0036497
-0.00364072
-0.00363156
-0.00362221
-0.00361268
-0.00360297
-0.00359308
-0.00358302
-0.00357277
-0.00356236
-0.00355177
-0.003541
-0.00353007
-0.00351897
-0.0035077
-0.00349626
-0.00348466
-0.0034729
-0.00346098
-0.00344889
-0.00343665
-0.00342426
-0.0034117
-0.003399
-0.00338614
-0.00337314
-0.00335998
-0.00334668
-0.00333324
-0.00331965
-0.00330592
-0.00329205
-0.00327804
-0.0032639
-0.00324962
-0.00323521
-0.00322066
-0.00320599
-0.00319119
-0.00317627
-0.00316122
-0.00314604
-0.00313075
-0.00311534
-0.00309981
-0.00308417
-0.00306841
-0.00305254
-0.00303657
-0.00302048
-0.00300429
-0.00298799
-0.00297159
-0.00295509
-0.0029385
-0.0029218
-0.00290501
-0.00288813
-0.00287115
-0.00285409
-0.00283693
-0.0028197
-0.00280237
-0.00278497
-0.00276748
-0.00274992
-0.00273228
-0.00271457
-0.00269678
-0.00267892
-0.00266099
-0.002643
-0.00262494
-0.00260681
-0.00258863
-0.00257038
-0.00255208
-0.00253372
-0.00251531
-0.00249684
-0.00247832
-0.00245976
-0.00244115
-0.00242249
-0.00240379
-0.00238505
-0.00236626
-0.00234745
-0.00232859
-0.0023097
-0.00229078
-0.00227183
-0.00225285
-0.00223384
-0.00221481
-0.00219576
-0.00217668
-0.00215759
-0.00213848
-0.00211935
-0.00210021
-0.00208105
-0.00206189
-0.00204271
-0.00202353
-0.00200434
-0.00198515
-0.00196596
-0.00194677
-0.00192758
-0.00190839
-0.00188921
-0.00187003
-0.00185087
-0.00183171
-0.00181256
-0.00179343
-0.00177432
-0.00175522
-0.00173614
-0.00171707
-0.00169803
-0.00167902
-0.00166003
-0.00164106
-0.00162212
-0.00160322
-0.00158434
-0.0015655
-0.00154669
-0.00152792
-0.00150918
-0.00149048
-0.00147183
-0.00145321
-0.00143464
-0.00141611
-0.00139763
-0.0013792
-0.00136082
-0.00134248
0.0013242
0.00130597
0.0012878
0.00126968
0.00125162
0.00123362
0.00121568
0.0011978
0.00117999
0.00116224
0.00114455
0.00112693
0.00110938
0.0010919
0.00107448
0.00105714
0.00103987
0.00102268
0.00100556
0.000988519
0.000971554
0.000954668
0.000937862
0.000921136
0.000904492
0.000887931
0.000871455
0.000855063
0.000838758
0.00082254
0.00080641
0.000790369
0.000774419
0.00075856
0.000742792
0.000727118
0.000711538
0.000696052
0.000680662
0.000665369
0.000650173
0.000635076
0.000620077
0.000605179
0.000590381
0.000575684
0.00056109
0.000546599
0.000532212
0.000517929
0.000503751
0.000489679
0.000475713
0.000461855
0.000448104
0.000434462
0.000420928
0.000407505
0.000394191
0.000380988
0.000367897
0.000354917
0.00034205
0.000329295
0.000316653
0.000304126
0.000291712
0.000279413
0.00026723
0.000255161
0.000243209
0.000231372
0.000219652
0.000208049
0.000196564
0.000185195
0.000173945
0.000162813
0.000151799
0.000140903
0.000130126
0.000119469
0.00010893
9.85112e-05
8.82117e-05
7.8032e-05
6.7972e-05
5.80321e-05
4.82123e-05
3.85126e-05
2.89331e-05
1.9474e-05
1.01353e-05
9.16883e-07
-8.18109e-06
-1.71587e-05
-2.60158e-05
-3.47526e-05
-4.33691e-05
-5.18653e-05
-6.02414e-05
-6.84973e-05
-7.66332e-05
-8.46492e-05
-9.25454e-05
-0.000100322
-0.000107979
-0.000115517
-0.000122936
-0.000130236
-0.000137417
-0.000144479
-0.000151424
-0.00015825
-0.000164959
-0.00017155
-0.000178024
-0.000184381
-0.000190622
-0.000196746
-0.000202755
-0.000208648
-0.000214426
-0.000220089
-0.000225638
-0.000231073
-0.000236394
-0.000241602
-0.000246698
-0.000251681
-0.000256552
-0.000261313
-0.000265962
-0.000270501
-0.00027493
-0.00027925
-0.000283462
-0.000287565
-0.00029156
-0.000295449
-0.000299231
-0.000302907
-0.000306477
-0.000309943
-0.000313305
-0.000316563
-0.000319719
-0.000322772
-0.000325724
-0.000328575
-0.000331325
-0.000333976
-0.000336528
-0.000338982
-0.000341339
-0.000343599
-0.000345763
-0.000347831
-0.000349806
-0.000351686
-0.000353473
-0.000355168
-0.000356772
-0.000358284
-0.000359707
-0.000361041
-0.000362286
-0.000363444
-0.000364515
-0.0003655
-0.000366401
-0.000367217
-0.000367949
-0.000368599
-0.000369167
-0.000369655
-0.000370062
-0.00037039
-0.00037064
-0.000370813
-0.000370909
-0.000370929
-0.000370875
-0.000370747
-0.000370546
-0.000370273
-0.000369929
-0.000369515
-0.000369031
-0.000368479
-0.00036786
-0.000367174
-0.000366422
-0.000365606
-0.000364726
-0.000363783
-0.000362779
-0.000361713
-0.000360588
-0.000359403
-0.000358161
-0.000356861
-0.000355505
-0.000354094
-0.000352629
-0.000351111
-0.00034954
-0.000347917
-0.000346244
-0.000344522
-0.000342751
-0.000340933
-0.000339068
-0.000337158
-0.000335202
-0.000333203
-0.000331162
-0.000329078
-0.000326954
-0.00032479
-0.000322586
-0.000320345
-0.000318067
-0.000315753
-0.000313403
-0.00031102
-0.000308603
-0.000306154
-0.000303674
-0.000301163
-0.000298623
-0.000296054
-0.000293458
-0.000290835
-0.000288186
-0.000285512
-0.000282815
-0.000280095
-0.000277352
-0.000274589
-0.000271805
-0.000269002
-0.00026618
-0.000263341
-0.000260486
-0.000257614
-0.000254728
-0.000251828
-0.000248915
-0.000245989
-0.000243052
-0.000240105
-0.000237147
-0.000234182
-0.000231208
-0.000228227
-0.000225239
-0.000222247
-0.000219249
-0.000216248
-0.000213244
-0.000210238
-0.00020723
-0.000204222
-0.000201213
-0.000198206
-0.000195201
-0.000192198
-0.000189198
-0.000186202
-0.000183212
-0.000180226
-0.000177247
-0.000174275
-0.00017131
-0.000168354
-0.000165407
-0.00016247
-0.000159543
-0.000156628
-0.000153724
-0.000150833
-0.000147955
-0.000145091
-0.000142241
-0.000139407
-0.000136588
-0.000133785
-0.000131
-0.000128232
-0.000125482
-0.000122751
-0.000120039
-0.000117347
-0.000114676
-0.000112025
-0.000109396
-0.000106789
-0.000104205
-0.000101644
-9.91065e-05
-9.65932e-05
-9.41044e-05
-9.16407e-05
-8.92026e-05
-8.67906e-05
-8.4405e-05
-8.20463e-05
-7.9715e-05
-7.74115e-05
-7.51361e-05
-7.28894e-05
-7.06717e-05
-6.84834e-05
-6.63248e-05
-6.41965e-05
-6.20986e-05
-6.00315e-05
-5.79957e-05
-5.59914e-05
-5.4019e-05
-5.20787e-05
-5.01709e-05
-4.82958e-05
-4.64538e-05
-4.46451e-05
-4.287e-05
-4.11288e-05
-3.94217e-05
-3.77488e-05
-3.61106e-05
-3.45071e-05
-3.29386e-05
-3.14053e-05
-2.99073e-05
-2.84449e-05
-2.70182e-05
-2.56274e-05
-2.42726e-05
-2.2954e-05
-2.16717e-05
-2.04259e-05
-1.92166e-05
-1.80439e-05
-1.69079e-05
-1.58088e-05
-1.47466e-05
-1.37214e-05
-1.27332e-05
-1.1782e-05
-1.0868e-05
-9.99107e-06
-9.15134e-06
-8.34877e-06
-7.58338e-06
-6.85515e-06
-6.16408e-06
-5.51013e-06
-4.89327e-06
-4.31345e-06
-3.77063e-06
-3.26475e-06
-2.79573e-06
-2.3635e-06
-1.96797e-06
-1.60904e-06
-1.28661e-06
-1.00057e-06
-7.50789e-07
-5.37148e-07
-3.59505e-07
-2.17713e-07
-1.11617e-07
-4.10555e-08
-5.85639e-09

shape_id 2
num_samples 1600
0
0
98
0.5
0
0
371
-0.5
0
0
748
0.5
0
0
371
-0.5

shape_id 3
num_samples 1888
0
-0.0182877
-0.00171764
0.0314639
0.0286336
0.013124
-0.00418013
-0.0179842
-0.0262072
-0.0286402
-0.0261011
-0.0198888
-0.0114336
-0.002083
0.00701873
0.0149875
0.0212128
0.0253432
0.0272555
0.0270147
0.024831
0.0210177
0.0159523
0.0100419
0.00369457
-0.00270351
-0.0088055
-0.014316
-0.0189984
-0.0226784
-0.0252437
-0.0266414
-0.0268731
-0.0259884
-0.0240774
-0.0212633
-0.0176936
-0.0135325
-0.00895351
-0.00413252
0.000758482
0.00555656
0.0101122
0.0142929
0.0179855
0.0210982
0.0235613
0.0253275
0.0263714
0.0266886
0.0262941
0.0252206
0.0235165
0.0212435
0.018474
0.0152891
0.0117754
0.00802353
0.00412511
0.000170995
-0.00375075
-0.00755657
-0.0111689
-0.0145175
-0.0175403
-0.0201844
-0.0224066
-0.0241733
-0.0254614
-0.0262574
-0.0265575
-0.0263674
-0.0257011
-0.0245809
-0.0230362
-0.0211027
-0.0188216
-0.0162385
-0.0134025
-0.0103653
-0.0071802
-0.00390105
-0.000581553
0.00272565
0.00596974
0.00910243
0.0120786
0.0148566
0.0173993
0.0196738
0.021652
0.023311
0.0246328
0.0256047
0.0262192
0.0264738
0.0263709
0.0259177
0.0251256
0.0240104
0.0225914
0.0208914
0.0189362
0.0167542
0.0143757
0.0118328
0.00915876
0.00638774
0.00355411
0.000692205
-0.0021641
-0.00498181
-0.0077291
-0.0103757
-0.0128931
-0.015255
-0.0174372
-0.0194183
-0.0211792
-0.0227039
-0.0239791
-0.0249944
-0.0257425
-0.0262189
-0.0264221
-0.0263534
-0.0260168
-0.025419
-0.0245691
-0.0234786
-0.022161
-0.020632
-0.0189088
-0.0170103
-0.0149567
-0.0127691
-0.0104698
-0.00808135
-0.005627
-0.00313005
-0.000613778
0.00189878
0.00438502
0.00682302
0.00919163
0.0114707
0.0136413
0.0156855
0.0175872
0.0193314
0.020905
0.0222963
0.0234955
0.0244945
0.025287
0.0258686
0.0262366
0.0263901
0.0263298
0.0260585
0.0255801
0.0249006
0.0240272
0.0229685
0.0217346
0.0203365
0.0187865
0.0170979
0.0152847
0.0133618
0.0113445
0.00924878
0.00709081
0.00488705
0.00265405
0.000408308
-0.0018338
-0.00405617
-0.00624307
-0.00837925
-0.01045
-0.0124414
-0.01434
-0.0161336
-0.0178105
-0.0193601
-0.020773
-0.0220406
-0.0231555
-0.0241115
-0.0249034
-0.0255273
-0.0259803
-0.0262609
-0.0263685
-0.0263039
-0.0260687
-0.0256659
-0.0250992
-0.0243736
-0.023495
-0.0224699
-0.0213061
-0.0200118
-0.018596
-0.0170685
-0.0154395
-0.0137197
-0.0119204
-0.010053
-0.00812933
-0.0061614
-0.00416131
-0.00214123
-0.000113279
0.0019105
0.00391823
0.00589828
0.00783931
0.00973033
0.0115608
0.0133206
0.0150001
0.0165903
0.0180829
0.0194701
0.0207447
0.0219005
0.0229317
0.0238335
0.0246018
0.0252333
0.0257253
0.0260761
0.0262848
0.0263511
0.0262755
0.0260595
0.0257051
0.0252149
0.0245925
0.023842
0.0229682
0.0219763
0.0208722
0.0196624
0.0183538
0.0169536
0.0154697
0.01391
0.012283
0.0105972
0.00886152
0.00708497
0.00527662
0.00344568
0.00160132
-0.000247261
-0.00209097
-0.0039208
-0.00572793
-0.00750371
-0.00923973
-0.0109279
-0.0125603
-0.0141295
-0.0156284
-0.0170502
-0.0183888
-0.0196382
-0.0207931
-0.0218486
-0.0228004
-0.0236446
-0.0243779
-0.0249976
-0.0255015
-0.0258878
-0.0261554
-0.0263039
-0.0263331
-0.0262436
-0.0260364
-0.0257131
-0.0252757
-0.0247268
-0.0240694
-0.023307
-0.0224436
-0.0214833
-0.0204309
-0.0192915
-0.0180704
-0.0167735
-0.0154065
-0.0139758
-0.0124878
-0.0109491
-0.00936662
-0.00774714
-0.00609773
-0.00442548
-0.00273751
-0.00104094
0.000657122
0.00234962
0.00402958
0.00569015
0.0073246
0.00892637
0.0104891
0.0120066
0.0134729
0.0148824
0.0162296
0.0175095
0.0187172
0.0198483
0.0208987
0.0218645
0.0227424
0.0235293
0.0242225
0.0248198
0.0253192
0.0257194
0.0260192
0.0262179
0.0263152
0.0263112
0.0262064
0.0260016
0.0256982
0.0252976
0.0248019
0.0242134
0.0235346
0.0227686
0.0219185
0.020988
0.0199809
0.0189012
0.0177532
0.0165415
0.0152709
0.0139461
0.0125724
0.0111548
0.00969885
0.00820988
0.00669342
0.00515505
0.0036004
0.0020351
0.000464777
-0.00110495
-0.00266852
-0.00422041
-0.00575521
-0.00726758
-0.00875231
-0.0102043
-0.0116187
-0.0129906
-0.0143155
-0.0155891
-0.016807
-0.0179654
-0.0190606
-0.020089
-0.0210474
-0.0219328
-0.0227425
-0.0234741
-0.0241254
-0.0246946
-0.0251801
-0.0255805
-0.0258949
-0.0261226
-0.0262632
-0.0263166
-0.0262828
-0.0261625
-0.0259562
-0.0256651
-0.0252904
-0.0248337
-0.0242967
-0.0236816
-0.0229905
-0.0222262
-0.0213912
-0.0204886
-0.0195214
-0.0184932
-0.0174072
-0.0162673
-0.0150773
-0.013841
-0.0125627
-0.0112463
-0.00989638
-0.0085171
-0.00711295
-0.00568838
-0.00424791
-0.00279605
-0.00133735
0.000123678
0.00158251
0.00303469
0.00447578
0.00590143
0.00730733
0.0086893
0.0100432
0.0113651
0.012651
0.0138973
0.0151003
0.0162567
0.017363
0.0184161
0.0194132
0.0203515
0.0212283
0.0220414
0.0227885
0.0234678
0.0240773
0.0246156
0.0250814
0.0254736
0.0257912
0.0260337
0.0262005
0.0262915
0.0263066
0.0262461
0.0261105
0.0259003
0.0256163
0.0252598
0.0248319
0.0243341
0.023768
0.0231354
0.0224385
0.0216792
0.0208601
0.0199835
0.0190521
0.0180687
0.0170362
0.0159577
0.0148361
0.0136749
0.0124773
0.0112467
0.00998666
0.00870065
0.0073923
0.00606524
0.00472314
0.00336969
0.00200859
0.000643546
-0.000721761
-0.00208365
-0.00343849
-0.00478266
-0.00611261
-0.00742484
-0.00871592
-0.00998248
-0.0112212
-0.012429
-0.0136027
-0.0147394
-0.0158362
-0.0168902
-0.017899
-0.01886
-0.0197708
-0.0206293
-0.0214334
-0.0221812
-0.0228708
-0.0235008
-0.0240697
-0.0245761
-0.0250191
-0.0253976
-0.0257109
-0.0259584
-0.0261396
-0.0262544
-0.0263026
-0.0262843
-0.0261997
-0.0260493
-0.0258336
-0.0255533
-0.0252095
-0.024803
-0.0243352
-0.0238073
-0.0232209
-0.0225775
-0.021879
-0.0211272
-0.0203241
-0.0194718
-0.0185727
-0.017629
-0.0166431
-0.0156176
-0.0145551
-0.0134583
-0.01233
-0.0111729
-0.00998992
-0.00878404
-0.00755819
-0.00631538
-0.00505863
-0.00379098
-0.0025155
-0.00123525
4.67242e-05
0.00132736
0.00260364
0.00387256
0.00513113
0.00637643
0.00760556
0.00881568
0.010004
0.0111679
0.0123045
0.0134115
0.0144862
0.0155264
0.0165296
0.0174936
0.0184164
0.0192959
0.0201302
0.0209175
0.0216562
0.0223447
0.0229816
0.0235655
0.0240953
0.0245699
0.0249883
0.0253499
0.0256539
0.0258998
0.0260872
0.0262159
0.0262857
0.0262965
0.0262487
0.0261423
0.0259778
0.0257558
0.0254768
0.0251417
0.0247513
0.0243066
0.0238088
0.023259
0.0226588
0.0220093
0.0213124
0.0205695
0.0197824
0.0189529
0.0180831
0.0171747
0.01623
0.015251
0.01424
0.0131992
0.0121309
0.0110375
0.00992137
0.008785
0.00763084
0.00646141
0.00527922
0.00408683
0.00288678
0.00168164
0.000473964
-0.000733688
-0.00193878
-0.00313877
-0.00433117
-0.00551349
-0.00668328
-0.00783813
-0.00897567
-0.0100936
-0.0111896
-0.0122615
-0.013307
-0.0143242
-0.015311
-0.0162654
-0.0171855
-0.0180696
-0.0189159
-0.0197228
-0.0204886
-0.0212121
-0.0218917
-0.0225262
-0.0231144
-0.0236553
-0.0241479
-0.0245912
-0.0249846
-0.0253273
-0.0256188
-0.0258586
-0.0260463
-0.0261817
-0.0262648
-0.0262953
-0.0262734
-0.0261992
-0.0260731
-0.0258954
-0.0256665
-0.0253871
-0.0250578
-0.0246794
-0.0242528
-0.0237788
-0.0232585
-0.0226932
-0.0220839
-0.0214319
-0.0207387
-0.0200057
-0.0192344
-0.0184263
-0.0175832
-0.0167068
-0.0157987
-0.0148609
-0.0138952
-0.0129036
-0.0118879
-0.0108503
-0.00979264
-0.00871711
-0.00762578
-0.00652075
-0.00540417
-0.00427817
-0.00314492
-0.00200657
-0.000865288
0.000276762
0.00141743
0.00255457
0.00368605
0.00480977
0.00592363
0.00702558
0.00811358
0.00918564
0.0102398
0.0112741
0.0122867
0.0132758
0.0142396
0.0151764
0.0160844
0.0169621
0.017808
0.0186205
0.0193982
0.0201399
0.0208441
0.0215098
0.0221357
0.0227208
0.0232642
0.0237649
0.0242222
0.0246353
0.0250035
0.0253263
0.0256031
0.0258337
0.0260177
0.0261548
0.0262449
0.026288
0.026284
0.0262331
0.0261355
0.0259914
0.0258013
0.0255654
0.0252844
0.0249588
0.0245894
0.0241768
0.0237219
0.0232255
0.0226887
0.0221124
0.0214978
0.0208459
0.0201581
0.0194356
0.0186797
0.0178918
0.0170733
0.0162258
0.0153508
0.0144498
0.0135244
0.0125763
0.0116072
0.0106188
0.00961276
0.00859095
0.00755511
0.00650704
0.00544857
0.00438152
0.00330772
0.00222902
0.00114727
6.43024e-05
-0.00101804
-0.00209792
-0.00317352
-0.00424304
-0.00530467
-0.00635665
-0.00739723
-0.00842468
-0.00943731
-0.0104334
-0.0114115
-0.0123697
-0.0133067
-0.0142209
-0.0151109
-0.0159751
-0.0168122
-0.0176209
-0.0183998
-0.0191479
-0.0198638
-0.0205465
-0.0211949
-0.021808
-0.0223849
-0.0229247
-0.0234266
-0.0238898
-0.0243137
-0.0246976
-0.025041
-0.0253435
-0.0256045
-0.0258238
-0.0260011
-0.0261362
-0.0262289
-0.0262792
-0.0262871
-0.0262526
-0.0261759
-0.0260572
-0.0258967
-0.0256949
-0.025452
-0.0251687
-0.0248453
-0.0244825
-0.0240809
-0.0236413
-0.0231644
-0.0226511
-0.0221022
-0.0215187
-0.0209015
-0.0202518
-0.0195705
-0.0188588
-0.018118
-0.0173491
-0.0165535
-0.0157325
-0.0148873
-0.0140195
-0.0131302
-0.0122211
-0.0112935
-0.010349
-0.00938891
-0.00841488
